Channel_1,Channel_2,Channel_3,Channel_4,Channel_5,Channel_6,Channel_7,Channel_8,Thumb,Index,Middle,Ring,Pinky
0,-1,-5,-4,3,7,3,1,0,1,2,3,4
0,-3,0,2,-3,1,0,0,0,1,2,3,4
-2,-2,-2,-3,-4,-9,-4,-2,0,1,2,3,4
-1,0,-4,-2,1,0,0,-1,0,1,2,3,4
1,3,6,1,2,-1,-1,-2,0,1,2,3,4
2,-2,-2,4,-2,2,2,-2,0,1,2,3,4
-1,-1,-6,-5,5,4,-1,2,0,1,2,3,4
-2,-6,-11,-4,-6,-8,-4,-2,0,1,2,3,4
0,-9,-17,-10,-2,0,-2,-3,0,1,2,3,4
1,10,11,0,-3,-4,-6,-1,0,1,2,3,4
0,-6,6,-2,-3,-1,3,1,0,1,2,3,4
0,0,-22,-9,0,4,1,1,0,1,2,3,4
0,2,4,7,-1,-2,-3,-2,0,1,2,3,4
-2,-2,5,-18,-4,-2,-2,-4,0,1,2,3,4
0,-4,-6,3,-2,2,1,1,0,1,2,3,4
-3,-3,-13,-5,-7,-4,-1,0,0,1,2,3,4
0,5,0,4,1,-2,-2,-3,0,1,2,3,4
1,-4,2,5,9,7,2,1,0,1,2,3,4
0,3,7,2,-5,-2,0,1,0,1,2,3,4
-1,-4,-4,1,0,-1,-1,-1,0,1,2,3,4
1,4,-4,-5,4,5,-2,-2,0,1,2,3,4
-3,-9,7,-7,-3,-6,-1,0,0,1,2,3,4
0,1,-2,-4,-4,-6,-4,-2,0,1,2,3,4
-1,0,13,3,1,0,2,0,0,1,2,3,4
-1,-3,-18,-3,-1,3,3,0,0,1,2,3,4
-1,0,-2,0,0,1,-3,-2,0,1,2,3,4
-3,-1,4,3,-4,-5,-4,-4,0,1,2,3,4
-1,-3,-3,-2,-4,0,-1,-1,0,1,2,3,4
-1,-3,1,3,2,-1,-3,0,0,1,2,3,4
-1,-1,12,8,-4,-4,-2,0,0,1,2,3,4
-1,5,-7,-13,-3,-3,0,1,0,1,2,3,4
0,-12,-7,7,3,7,0,-1,0,1,2,3,4
-1,0,-3,0,-5,-2,-6,-1,0,1,2,3,4
-1,1,4,-3,-2,-2,-2,-3,0,1,2,3,4
-1,-2,-12,0,-3,-7,1,0,0,1,2,3,4
-5,-6,12,2,-2,-1,-7,-5,0,1,2,3,4
1,1,-5,-3,2,1,0,0,0,1,2,3,4
-2,-4,-4,1,0,-2,-2,0,0,1,2,3,4
0,-6,-13,-2,0,0,1,-1,0,1,2,3,4
-1,-3,-6,3,-1,-2,-1,-1,0,1,2,3,4
0,3,22,5,0,-1,-2,-2,0,1,2,3,4
-1,5,-11,-6,-1,-3,-1,1,0,1,2,3,4
-1,-2,14,5,1,1,1,-1,0,1,2,3,4
2,1,-15,-7,-4,1,-1,-1,0,1,2,3,4
-1,-1,-11,-9,-1,-1,4,0,0,1,2,3,4
-1,0,8,1,-4,-5,-3,-2,0,1,2,3,4
1,5,2,2,-6,-2,0,1,0,1,2,3,4
1,0,1,0,0,-2,-4,-1,0,1,2,3,4
0,-2,2,4,1,0,1,1,0,1,2,3,4
0,0,-8,-12,-4,5,1,0,0,1,2,3,4
0,1,-14,-7,-3,-2,0,-2,0,1,2,3,4
0,3,9,-2,-5,-4,1,-2,0,1,2,3,4
-2,-3,11,7,0,-2,-1,0,0,1,2,3,4
-1,1,-9,-5,-4,-3,-5,-2,0,1,2,3,4
-1,-9,-8,-10,4,5,1,-2,0,1,2,3,4
2,5,11,8,3,1,4,1,0,1,2,3,4
-2,1,-1,-11,-4,2,-1,0,0,1,2,3,4
1,-3,1,1,-2,-3,-2,-1,0,1,2,3,4
-1,0,-26,-1,1,-5,2,-1,0,1,2,3,4
0,2,11,-2,1,5,0,0,0,1,2,3,4
-1,-6,5,5,-3,-4,-1,0,0,1,2,3,4
-3,-5,-12,-5,1,-2,-2,-1,0,1,2,3,4
-2,2,7,3,-4,-2,-3,-3,0,1,2,3,4
0,-2,2,1,1,-3,0,1,0,1,2,3,4
-1,2,6,8,-6,-7,-6,-1,0,1,2,3,4
-3,-6,-25,-10,3,6,2,-2,0,1,2,3,4
-1,2,16,8,-4,-2,0,1,0,1,2,3,4
-1,-5,-9,-6,3,-1,-1,-1,0,1,2,3,4
-1,5,16,3,-1,0,2,-1,0,1,2,3,4
0,-5,-5,-2,0,-6,-4,-1,0,1,2,3,4
-2,5,9,7,-4,-8,-6,-1,0,1,2,3,4
1,-1,0,-2,1,10,2,3,511,1023,511,511,511
-2,-10,-9,-1,0,2,-1,0,511,1023,511,511,511
-1,3,3,-3,-3,0,-1,-1,511,1023,511,511,511
0,0,10,-7,1,3,-2,0,511,1023,511,0,1023
-2,0,-3,-9,2,0,0,0,511,1023,511,0,0
-2,2,-5,-1,-2,-3,-2,-1,511,1023,511,0,0
-1,-5,6,4,-1,-4,-1,-1,511,1023,511,511,1023
1,-1,-5,-1,-4,-1,2,0,511,1023,511,511,1023
0,3,-1,0,-1,-5,-6,0,511,1023,511,511,0
0,-7,-1,0,5,5,3,-2,511,1023,511,0,0
0,3,-20,-6,1,5,6,2,511,1023,511,0,0
-2,1,-4,1,-5,-3,-1,-1,511,1023,511,0,1023
-3,-9,-3,4,-4,-1,-5,-1,511,1023,511,341,0
0,8,15,4,0,-5,-2,-1,511,1023,511,0,1023
0,0,0,-1,-2,1,0,-2,511,1023,511,0,1023
2,2,-3,-5,2,0,1,0,511,1023,511,0,0
-1,-2,-8,1,-1,-1,1,-1,511,1023,511,0,1023
-4,-8,-14,-7,-9,-9,-3,-3,511,1023,511,0,1023
1,7,13,13,6,11,-1,-2,511,1023,511,0,1023
-2,-3,-3,1,0,3,1,1,511,1023,511,0,0
0,3,11,-6,-2,-3,3,1,511,1023,511,0,0
0,1,-2,2,-2,-9,-6,-2,511,1023,511,0,0
-2,-4,-4,4,0,6,3,0,511,1023,511,0,1023
0,0,-16,-1,1,3,1,0,511,1023,511,0,1023
0,0,4,13,-1,-4,-1,-1,511,1023,511,0,1023
0,3,11,-7,-2,-1,1,-1,511,1023,511,0,1023
-3,-4,4,-12,-4,-2,-3,-3,0,1023,511,0,0
-1,-3,-12,5,5,0,-2,-2,1023,1023,511,0,0
-1,0,7,0,-2,-1,-1,-2,1023,1023,511,0,0
1,2,9,2,0,1,-3,-1,0,1011,511,0,0
-1,-9,-26,-5,-11,-8,-2,-3,1023,1011,511,0,1023
0,2,10,2,1,-1,0,1,1023,1023,511,0,1023
0,-1,-6,2,2,3,2,0,1023,1011,511,255,0
0,5,2,-4,2,2,-2,0,1023,989,511,255,1023
-1,-1,8,-1,-3,-7,-2,-1,1023,967,511,255,1023
-1,-1,-2,14,0,0,-2,-1,1023,934,511,511,0
-1,0,-6,-16,1,-3,0,0,0,822,511,511,1023
0,3,2,2,-7,-6,-3,-1,1023,767,511,511,0
-6,-4,24,5,1,3,2,-3,1023,722,511,767,1023
-1,-1,-27,-9,1,5,1,0,1023,667,511,511,1023
-1,3,-12,-1,-7,-8,-9,-3,1023,644,511,767,1023
-1,-4,-9,-3,-4,-3,0,-1,1023,589,511,511,1023
0,5,17,13,7,5,0,-1,1023,522,511,511,1023
1,-3,3,-8,-1,0,2,1,1023,500,511,511,1023
-1,1,19,8,-2,0,-2,0,1023,478,511,767,1023
0,2,5,2,-1,-3,-1,-1,1023,422,511,511,511
-1,-4,10,8,3,-1,-1,1,1023,378,511,767,511
-5,-1,-26,-6,-5,3,-3,-2,1023,378,511,511,511
0,0,1,0,4,3,2,2,0,344,511,511,511
-1,-1,-12,-9,-4,-6,-2,-1,1023,322,511,511,511
0,-6,4,-4,-4,-6,-1,-3,1023,322,511,511,511
0,1,-3,4,-1,-1,1,-3,1023,300,511,511,511
-3,-3,-2,-9,-2,-2,-4,-1,1023,277,511,511,511
-1,-8,-2,2,-5,0,-1,-3,1023,244,511,767,511
2,7,9,9,5,4,1,-1,1023,222,511,767,0
-1,-7,6,-6,-1,3,0,-1,1023,211,511,511,511
-1,0,-17,-8,-2,-2,-4,-2,1023,177,511,0,511
-2,3,21,4,1,-3,3,-2,1023,166,511,0,511
-2,-7,-23,-4,-3,-4,-1,-1,1023,100,511,0,511
-2,2,5,4,2,2,1,-1,0,55,511,0,511
0,-2,3,1,5,4,1,1,1023,55,511,0,511
0,-2,-14,2,-5,-3,1,-1,0,33,511,0,511
-1,-2,6,7,-7,-10,-3,0,1023,22,511,0,511
-1,-3,-7,-14,-2,1,-3,-1,0,11,511,0,511
-1,1,7,1,1,0,-3,-3,1023,0,511,63,1023
-2,0,-7,-10,-6,3,1,-1,1023,0,511,63,1023
-1,1,-4,1,-2,4,2,1,1023,0,511,191,1023
-2,-3,10,-10,-5,-3,-2,-1,1023,0,511,191,1023
-1,1,9,-6,0,-3,2,-2,1023,0,511,319,1023
-2,-5,-6,8,0,-2,-1,0,1023,99,511,1023,682
1,9,-6,0,1,1,1,0,1023,220,511,1023,682
-4,-6,-3,-11,-3,-4,-3,-2,1023,319,511,1023,682
1,3,-17,-4,-1,1,1,-2,1023,374,511,1023,682
1,2,20,13,-1,-3,-3,-2,1023,627,511,1023,1023
-2,-2,2,-4,2,-2,3,-1,1023,660,511,1023,1023
-1,-3,-15,-5,-3,-1,-2,-2,1023,836,511,1023,1023
-2,-3,3,3,0,-1,-2,-3,1023,990,511,1023,1023
0,1,-10,0,-1,-2,-2,-1,1023,1012,1023,1023,1023
-1,-3,2,-2,1,3,0,-1,1023,1023,1023,1023,1023
1,3,8,0,-4,-7,-2,1,1023,1023,1023,1023,1023
-4,-3,2,3,-1,1,-3,-1,1023,1023,1023,1023,1023
-1,4,-5,-11,0,3,7,0,1023,1023,1023,1023,1023
0,-3,0,8,-3,-4,-7,-3,1023,1023,1023,1023,1023
0,-4,-13,-4,2,1,3,1,1023,1023,1023,1023,1023
0,1,5,-5,-9,-7,-1,-1,1023,1023,1023,1023,1023
-4,-10,-12,-4,-5,0,-2,-3,1023,1023,1023,1023,1023
1,5,-4,1,-3,-3,-3,0,1023,1023,1023,1023,1023
-1,-2,11,-1,0,2,-4,-1,1023,1023,1023,1023,1023
1,0,-13,2,-4,-2,-1,-1,1023,1023,1023,1023,1023
0,-2,-8,-5,-5,0,-1,0,1023,1023,1023,1023,1023
0,0,16,1,0,-1,2,0,1023,1023,1023,1023,1023
-2,-10,-17,2,-8,-4,2,-1,1023,1023,1023,1023,1023
-2,-4,0,-5,2,3,0,-1,1023,1023,1023,1023,1023
-4,5,22,6,0,2,-2,-4,1023,1023,1023,1023,1023
-2,-2,-7,-7,2,3,-1,-2,1023,1023,1023,1023,1023
1,1,5,4,-1,-2,1,1,1023,1023,1023,1023,1023
-3,-5,-10,-6,-1,-3,-3,-3,1023,1023,1023,1023,1023
-1,-1,3,0,5,-1,-5,-1,1023,1023,1023,1023,1023
1,-2,3,-1,-1,2,0,-2,1023,1023,1023,1023,1023
-1,2,-5,4,1,-2,0,1,1023,1023,1023,1023,1023
-2,-2,-1,1,-1,-2,-1,-1,1023,1023,1023,1023,1023
0,0,4,-1,-3,3,-1,0,1023,1023,1023,1023,1023
-2,-6,-22,-3,-1,-3,-1,2,1023,1023,1023,1023,1023
0,3,-1,4,-5,-2,1,-2,1023,1023,1023,1023,1023
0,-4,7,1,5,4,1,2,1023,1023,1023,1023,1023
1,2,-4,-3,0,5,5,-1,1023,1023,1023,1023,1023
-2,-3,-6,-1,-6,-5,-3,-1,1023,1023,1023,1023,1023
0,-1,1,-7,-2,0,1,-1,1023,1023,1023,1023,1023
-1,-4,-1,1,-7,-6,-2,-2,1023,1023,1023,1023,1023
1,5,5,-1,-6,-3,-1,0,1023,1023,1023,1023,1023
0,-6,-2,2,2,1,-6,1,1023,1023,1023,1023,1023
-4,-4,-10,-5,0,4,5,-1,1019,1023,1023,1023,1023
1,5,7,2,1,5,-2,-1,1023,1023,1023,1023,1023
-3,-4,-2,-9,-5,-8,-5,0,1023,1023,1023,1023,1023
-1,-3,-1,-8,0,1,3,-1,1023,1023,1023,1023,1018
-1,3,-1,2,-2,-4,-4,-3,1023,1019,1023,1023,1023
-1,-4,1,0,-2,-2,6,0,1023,1023,1023,1020,1018
1,-2,-2,4,0,-2,0,1,1023,1023,1023,1023,1023
-1,0,4,-2,2,1,1,-2,1023,1023,1023,1020,1023
-1,0,-8,3,-1,-1,1,-1,1023,1023,1023,1020,1023
-3,1,-2,-1,-2,1,0,-1,1023,1023,1023,1023,1023
-1,0,13,3,1,-2,-1,0,1019,1023,1023,1020,1023
-2,-1,-15,-9,-3,-3,0,0,1023,1023,1023,1023,1023
3,6,15,4,2,2,4,1,1023,1023,1023,1020,1023
-2,0,-3,4,-5,-2,-2,-2,1023,1023,1023,1020,1023
-2,-6,-12,-21,-6,-2,-1,-1,1016,987,1006,1012,1014
-1,-3,7,7,1,-1,-2,1,1005,944,978,981,978
0,3,-1,3,-3,0,0,0,953,786,882,904,894
-1,3,14,8,-1,-1,-2,0,904,675,806,842,846
0,-4,-3,-6,-1,-2,-1,-1,799,509,607,644,710
1,-1,-3,1,1,-4,-8,0,782,462,548,582,669
-3,1,-9,0,-5,-1,1,-1,747,398,427,461,601
-1,-2,2,0,1,3,-2,1,733,359,365,401,553
-1,-1,-4,6,2,5,-1,-1,705,292,247,291,465
1,4,16,8,4,-1,0,0,680,236,137,198,377
-2,-6,-20,-15,-2,-3,-2,1,645,169,0,115,264
-2,1,-8,9,-5,-8,-2,-4,611,138,0,82,208
0,2,14,-12,-2,1,2,-1,565,86,0,48,132
2,3,4,-2,-2,0,2,1,527,47,0,25,80
-4,-11,-3,-2,-4,0,1,-2,495,31,0,12,52
1,6,7,8,-1,-4,1,-1,478,19,0,0,36
-1,4,20,4,1,-4,0,0,422,0,0,0,28
-3,-14,-22,-11,-7,0,-3,-2,411,0,0,0,24
-1,1,4,-2,0,0,1,-1,384,0,0,0,20
-1,-6,-17,-7,-2,-4,-2,-1,352,0,0,0,24
2,10,3,13,2,1,2,1,331,0,0,0,16
-1,-8,-13,-14,-1,1,-1,0,328,3,0,0,12
-1,2,15,16,0,-6,-1,0,324,0,0,0,16
-4,-9,-9,-20,-5,-2,-4,-3,321,3,0,0,16
0,6,6,6,5,2,0,-1,317,3,0,0,16
1,2,7,-1,-2,1,-2,1,314,3,0,0,16
0,-1,2,5,1,3,-2,-1,314,3,0,0,16
0,4,21,-5,2,3,3,-1,314,3,0,0,16
-1,-5,-27,-18,-3,-1,-3,-3,314,7,0,7,16
1,0,18,6,-3,-9,-11,-1,314,40,0,19,16
-4,-1,-15,-7,-1,5,6,-1,314,51,0,24,16
1,3,12,4,-4,-5,1,0,314,81,0,42,16
2,-2,3,0,-2,0,-3,0,314,103,0,64,16
1,2,-18,-8,1,2,-1,-2,314,122,0,77,16
-1,-1,-14,2,-1,-5,-3,0,314,155,0,107,16
-2,1,8,-5,-5,-2,1,-1,314,207,0,149,20
0,-1,-14,3,0,2,-1,-2,331,233,0,176,20
1,0,-6,-9,-1,-1,3,0,359,266,0,224,36
0,-4,4,4,-2,2,0,-1,380,285,50,261,44
-4,-2,-15,-12,-2,-1,0,-1,418,322,118,323,68
0,-4,5,8,0,1,-2,-1,478,344,202,395,136
-1,-4,-18,-15,-8,-6,-1,-1,537,392,303,482,244
-3,8,32,11,3,1,1,-2,555,400,373,542,308
0,-4,-15,-1,-2,-2,2,0,562,407,396,560,336
-1,3,11,5,4,0,-2,1,593,441,458,612,409
-1,-8,-1,7,0,0,3,0,600,455,474,632,433
-1,0,-4,-15,-7,-8,-7,-2,611,470,494,647,457
-3,-3,8,4,-1,2,5,-3,617,481,514,662,477
2,5,-1,-5,1,1,-5,1,631,504,556,689,513
0,1,-7,-1,-1,-2,-1,-1,635,518,576,706,541
-1,-5,-14,0,-3,-4,-1,-1,645,544,612,729,569
1,-5,-1,-1,2,3,1,0,652,563,646,746,601
-1,10,-8,10,-4,-6,-3,-3,659,585,663,764,617
-2,-2,12,-18,-1,-1,-2,0,663,618,688,776,633
-3,-4,-16,-2,-2,-1,-3,-3,670,641,744,798,661
0,3,17,8,2,1,-2,1,673,678,778,816,690
-2,-2,24,20,2,2,2,1,684,719,840,838,726
-1,2,0,-12,-3,-3,-5,-2,694,745,896,871,758
-2,-8,-16,-5,-3,-2,1,-1,698,752,919,878,770
0,7,16,8,1,0,-2,1,705,756,930,891,786
-1,-4,-3,-4,-2,-5,-6,-2,743,774,997,925,826
-2,2,-7,10,3,2,4,-2,757,778,1003,930,834
-2,-2,-3,-6,2,2,3,-1,768,782,1014,935,842
-1,0,-1,-1,0,3,0,0,796,800,1023,950,858
-1,-1,5,-1,-3,-3,-2,-1,813,815,1023,960,870
1,2,-11,1,-2,-5,-7,-1,844,845,1023,973,890
-2,1,5,-4,-2,0,-1,-3,865,856,1023,985,898
0,-6,-10,2,1,0,-1,-1,879,856,1023,993,906
1,2,9,-1,2,2,1,1,893,867,1023,998,910
1,-7,-24,-18,0,1,-3,0,914,882,1023,1000,910
-4,-3,3,12,-6,-7,-2,-3,956,882,1023,1008,922
-1,0,0,-13,-1,2,-2,-3,974,882,1023,1013,926
0,-4,3,7,-1,-1,-1,-1,1009,882,1023,1013,926
2,6,-6,-3,3,1,0,1,1016,882,1023,1015,930
0,-4,0,-4,-2,-1,-2,1,1019,885,1023,1015,926
-2,-1,-5,6,-1,-3,-1,-1,1016,882,1023,1013,930
1,5,2,-1,-1,-8,-2,-2,1016,885,1023,1015,930
-2,-1,18,4,-3,0,-2,-3,1019,885,1023,1015,930
0,-8,-22,-10,5,2,3,0,1016,885,1023,1015,930
-1,4,20,6,4,0,0,-1,1016,882,1023,1015,930
-1,-7,-12,-9,1,0,1,-3,1016,882,1023,1013,930
-3,-5,-15,20,0,-2,-5,-1,1016,885,1023,1015,930
3,6,16,-25,-3,1,-4,-1,1016,882,1020,1013,930
-3,-2,-8,6,-2,-6,-5,-1,1005,871,999,1005,926
3,2,3,-4,-1,6,7,2,967,808,943,955,898
-4,-14,2,5,-2,-3,-3,-2,907,704,856,888,830
-1,13,4,-2,-2,1,0,1,789,500,635,694,669
-1,-5,2,3,-2,0,1,0,778,467,582,637,629
-1,0,-15,-4,0,1,0,-2,768,437,514,574,585
0,1,15,0,-4,-4,-1,0,757,411,445,507,541
-1,-6,-13,-4,-3,-1,-3,0,729,307,242,321,381
0,5,14,-1,-1,-3,-5,-2,719,266,176,263,332
-3,-7,-19,-1,-1,1,-5,-1,708,237,108,216,284
0,6,20,0,4,1,5,0,677,155,0,124,152
-3,-6,-20,-2,-5,-4,-3,1,638,63,0,57,40
-2,-7,4,12,-3,-4,-2,-2,628,44,0,44,32
-1,4,-18,-18,1,0,-2,0,607,14,0,22,20
0,5,7,-2,3,1,1,-1,593,7,0,12,20
-1,-6,23,12,-1,-1,-3,-1,569,0,0,0,16
-1,2,-21,-10,-5,0,-2,-2,530,0,0,0,8
-1,-5,1,6,1,-2,0,3,485,0,0,0,4
-1,12,11,0,-2,-2,3,-3,481,0,0,0,4
-2,-13,-4,-3,2,2,0,-2,464,0,0,0,4
0,-8,-12,0,0,2,1,3,453,0,0,0,0
-2,-2,9,2,-4,-6,-2,-3,436,0,0,0,4
-1,-3,-16,-6,1,2,1,1,418,0,0,0,4
2,11,10,15,5,-1,-1,-1,411,0,0,2,0
-5,-12,-16,-23,-8,-2,2,-3,405,0,0,0,4
-1,5,9,1,1,-1,-4,-4,405,0,0,2,0
1,-6,-9,-8,-2,-1,-1,-1,405,3,0,6,0
-2,1,16,13,0,-3,-4,-2,405,0,0,32,0
1,4,-16,-16,-2,-2,2,0,405,3,0,57,4
1,1,11,6,-1,5,3,-1,405,28,0,104,4
-1,0,5,0,1,-6,-4,0,405,67,0,141,4
-1,-2,-2,3,0,-3,-3,-1,405,139,0,187,4
1,6,6,5,-1,-2,-3,-2,405,178,0,218,8
-1,0,5,-5,3,0,0,1,405,213,0,248,16
0,-3,-11,5,1,1,-1,-1,405,245,0,283,20
0,-1,-1,-8,2,1,1,0,405,278,0,317,36
1,8,14,5,4,2,1,0,408,295,42,354,60
-6,-24,-3,-1,-3,-1,2,-2,432,335,121,417,120
-1,0,1,-5,-1,1,1,-1,478,360,197,468,180
-3,4,-21,-7,-9,-10,-3,-6,499,367,245,498,224
-1,-6,18,-8,4,1,-3,0,579,392,348,568,316
3,13,11,6,0,-1,0,2,624,402,411,619,377
-2,-10,-33,-6,0,2,-1,0,677,434,503,665,465
-1,-7,15,6,0,1,1,3,708,456,543,693,509
-1,11,0,4,0,-2,-2,-2,722,463,558,705,529
-2,-6,-11,-13,-5,-3,-2,-1,736,491,598,726,561
-3,-2,1,5,-2,-3,-2,0,750,499,611,735,573
-1,-3,-8,-1,3,4,5,-1,796,538,677,779,621
1,2,9,-3,2,-7,-2,0,827,573,735,809,657
-1,-1,-28,-10,-5,1,-3,-3,855,577,767,823,682
1,-2,-1,-10,-1,-3,-4,-1,869,605,801,844,702
-1,2,0,6,-1,2,0,-1,893,616,843,862,726
-4,-16,0,7,3,1,1,-4,904,627,854,872,738
3,12,21,10,1,-1,0,5,939,641,893,904,774
0,1,-16,-2,-3,-3,-3,0,946,645,909,909,782
-2,-2,-19,-9,-2,-2,-2,-1,949,655,912,911,786
-1,-2,15,7,0,5,8,-1,949,666,920,918,790
4,8,25,9,1,2,0,2,949,691,930,927,798
-1,-6,-27,-20,-5,-2,3,1,949,698,930,934,806
-2,-1,11,0,5,4,0,-2,949,698,930,937,810
0,6,11,-11,-4,-5,-3,0,953,702,930,951,814
4,-8,17,2,3,3,-1,-4,974,705,930,965,814
15,4,-22,-2,3,-2,4,6,1023,705,930,981,826
-13,6,-3,6,0,5,0,-4,1023,705,930,992,838
-17,-11,10,10,-5,-3,-1,-5,1023,705,930,992,838
-7,-7,-16,-16,-4,-5,-3,-2,1023,709,933,999,846
-3,-2,2,8,1,-4,-1,-2,1023,716,935,999,846
20,3,0,-1,0,-2,-3,1,1023,730,938,1002,854
16,6,10,4,1,3,-2,4,1023,734,941,1004,858
-17,-9,-13,2,-3,-1,-2,-2,1019,734,941,1004,858
-5,12,23,1,-5,1,1,-6,1019,737,943,1004,870
-10,-36,-20,2,-4,-6,-5,-4,1023,737,943,1006,866
11,14,-4,-7,6,3,1,0,1023,737,943,1004,870
0,-3,10,-6,-5,-3,-4,0,1023,737,943,1004,878
0,2,7,13,1,0,-1,3,1023,737,941,1002,874
-7,1,-19,-9,1,2,0,-2,1019,737,943,1004,886
-4,-9,-10,-13,-5,-2,3,-2,1023,737,943,1004,890
1,6,6,2,-2,-3,-2,-2,1023,737,943,1004,890
-3,0,10,4,-1,-1,-4,-2,1023,741,943,1004,890
7,8,12,6,-5,-2,3,0,1019,737,943,1004,890
-6,-10,-11,0,0,-2,-4,-1,1019,734,943,1004,890
-1,4,-9,-15,-2,-1,0,0,1023,737,943,1004,890
2,-8,-19,-3,-1,7,-1,-2,1023,737,943,1004,890
20,13,27,11,-3,-2,3,4,1023,737,943,1004,890
-14,-5,-12,1,-3,-3,-2,-3,1023,737,943,1004,890
-10,-5,11,10,-2,0,-3,-3,1023,737,943,1004,890
-13,-5,-3,-11,-2,-3,-4,-2,989,684,899,990,874
-4,-9,-13,0,1,2,-2,-2,951,616,848,958,838
5,13,6,-1,-2,-2,-2,1,907,556,788,916,786
9,7,-5,-1,-6,-4,-1,-1,846,495,706,862,730
8,-10,-1,-4,-1,2,-1,1,761,417,545,716,617
-1,4,7,3,1,-3,-4,-2,747,395,477,658,569
1,-2,5,1,-5,-4,0,1,740,374,406,591,521
14,-3,-11,-9,-2,-1,-2,2,642,181,0,148,140
-12,4,1,-5,-2,2,4,0,625,160,0,118,92
-1,-3,5,2,0,-2,-1,-2,581,114,0,69,24
-7,-8,-6,-4,-4,1,-1,-2,557,71,0,51,16
1,-1,6,3,0,2,2,2,540,39,0,30,12
11,8,-7,-2,-2,1,0,0,530,35,0,25,8
-5,-4,4,1,-3,-2,0,-1,496,24,0,11,4
-1,1,-11,-1,3,5,-2,-3,479,21,0,4,4
-1,2,2,1,0,0,0,-3,472,21,0,0,4
3,-5,-1,8,3,0,-3,0,452,14,0,0,4
-4,4,4,-10,-3,0,0,-1,445,14,0,0,4
-3,-1,-1,-1,-6,-4,0,1,435,10,0,0,4
3,2,4,5,3,-2,0,-2,431,7,0,0,4
-6,0,17,9,-3,-4,-4,-3,421,10,0,0,4
-4,-5,-27,-13,-1,-1,-2,-1,418,10,0,0,4
3,-4,1,-6,1,-3,-2,-2,414,10,0,0,4
-1,7,12,5,0,5,0,1,414,10,0,2,0
13,7,-7,-13,-3,0,-1,0,414,10,0,0,0
-9,-6,-1,18,-1,-4,-1,-1,414,10,0,9,4
-10,-7,-13,-17,-8,-6,-3,-3,414,14,0,25,4
-6,-10,0,-1,6,-1,-4,-4,414,14,0,32,4
-5,7,9,15,4,5,1,-2,414,14,0,45,4
9,-3,-2,-14,-3,0,3,2,414,35,0,66,4
4,9,19,16,0,-4,-3,-2,414,46,0,75,4
-4,-3,-8,2,-3,-7,-1,-1,414,89,0,109,4
1,-5,7,-7,2,4,2,2,414,106,0,119,4
2,6,-11,-8,0,-1,0,-2,414,139,0,146,4
-3,-4,15,19,2,2,-1,1,414,156,0,164,4
12,4,-7,-16,-3,0,2,0,414,174,0,189,4
-13,-5,-7,0,-2,-2,1,-3,414,192,0,217,4
0,5,-1,-1,-3,-6,-6,1,414,206,2,244,4
-2,-6,-8,-4,-2,0,2,1,414,238,71,283,4
1,-8,-30,-9,-2,2,-1,-1,414,256,100,315,4
6,5,8,12,-3,-4,-3,2,414,263,113,329,4
-14,-11,-36,-17,-5,-2,0,-3,414,281,145,363,4
6,5,14,1,0,-3,-3,-4,414,310,208,430,16
-7,5,3,-2,-2,-2,2,0,414,317,239,455,24
0,-7,12,0,-2,-4,-3,-3,431,335,316,510,64
2,5,1,4,0,1,-1,1,472,349,435,574,164
11,1,10,11,-2,2,1,1,482,352,477,604,216
-2,-2,-15,-27,1,5,0,-1,489,363,500,620,240
-9,-9,-13,20,0,-4,-5,-3,503,374,553,649,312
0,1,24,-6,0,2,0,-3,513,392,590,672,357
-1,4,-4,6,-4,-8,-4,1,513,395,609,684,373
0,1,3,8,-1,-1,-5,-3,516,417,635,700,413
0,-2,2,-3,5,6,1,1,519,424,661,711,429
4,2,17,12,-4,-3,-3,1,519,441,696,727,461
-8,-7,-32,-13,-4,-6,-3,-2,519,470,754,759,501
-2,-5,6,1,2,-1,2,0,523,495,790,789,525
-6,3,14,-3,-5,0,0,-2,523,527,843,814,557
4,1,8,-2,-1,-3,-1,-1,519,534,859,826,569
0,3,-17,-13,0,1,2,3,526,552,883,849,601
-13,-7,4,5,-3,-4,-5,-5,536,577,920,885,621
0,4,1,-13,2,2,6,1,536,591,935,892,633
-5,-3,-11,5,-3,-2,1,-2,547,609,959,913,649
3,1,0,2,4,3,0,0,557,623,978,929,661
3,3,18,1,-4,-7,1,1,564,627,986,933,669
-1,-3,-14,-2,-4,5,-1,-4,584,634,1004,963,690
1,1,6,5,6,10,3,3,598,638,1015,977,702
-5,-10,1,-16,-7,-6,1,-4,604,638,1020,981,710
1,-4,17,7,-2,-4,-1,-1,615,641,1023,988,714
-2,-2,-36,2,-3,-2,-4,-5,628,641,1023,1002,726
-1,-8,11,1,1,2,0,-1,649,641,1023,1009,738
3,3,10,2,0,-2,0,2,672,641,1023,1013,754
-2,4,7,4,0,-2,-3,3,683,641,1023,1016,754
-1,0,-11,0,-1,1,0,0,710,645,1023,1018,762
-3,-1,-18,-1,0,-2,-3,-2,720,641,1020,1020,766
-1,-4,-16,-11,2,3,2,0,764,641,1023,1020,786
-3,3,28,-2,-4,-5,-1,0,795,645,1023,1023,794
-1,-5,-16,-6,-2,-4,-4,-1,805,645,1023,1023,798
-1,0,15,9,0,1,0,0,805,645,1023,1023,802
-2,-1,-2,2,-1,-3,2,-2,805,645,1023,1020,802
-1,0,-1,10,-1,-2,-5,-4,805,645,1023,1023,806
-2,-2,1,-13,-3,1,-3,-1,805,645,1023,1020,810
-1,6,-15,-12,-1,2,0,-1,805,641,1023,1020,810
-2,1,22,4,0,-5,-3,-1,805,641,1023,1023,810
-2,-7,-6,-12,-3,-4,0,-3,805,641,1023,1023,810
-1,0,-7,5,0,-5,0,0,805,645,1023,1023,810
1,1,-7,4,-2,4,-2,1,805,641,1023,1020,810
-3,1,30,-4,-2,-1,-3,-3,805,641,1020,1020,810
-2,-6,-43,-6,2,2,0,1,805,645,1017,1023,810
0,7,19,14,4,-1,0,0,802,641,1002,1020,810
-2,-8,-10,2,-5,-4,-3,0,795,634,979,1011,802
-1,0,-16,-16,2,6,2,0,781,605,943,993,786
1,3,17,8,4,3,3,1,761,563,886,959,758
-3,-6,-9,-4,-6,-1,0,-3,720,499,816,920,726
1,2,12,6,0,0,0,-1,693,406,690,828,677
2,-1,-19,-1,-2,-2,-3,-1,693,406,690,828,677
-3,-2,3,3,-4,-3,-3,-4,662,356,525,680,597
2,1,7,-8,5,5,-1,0,645,324,399,561,525
0,-1,-2,-9,-1,-1,3,-1,611,267,221,392,401
-3,-1,14,5,-3,-7,-3,-2,598,253,172,342,361
-1,-1,-18,2,-2,1,4,2,577,220,82,264,280
-1,-8,4,-4,-1,-3,-3,0,550,192,0,205,176
-2,5,16,5,1,3,-5,-4,486,178,0,184,112
1,1,1,-4,0,5,5,3,435,167,0,182,80
1,1,21,10,-2,-4,-4,-3,401,167,0,182,72
-1,-2,-4,1,-4,0,1,0,370,163,0,182,68
-1,-5,-13,-8,-6,-7,-1,-1,353,167,0,182,64
0,0,8,21,2,-1,-4,-2,326,167,0,184,64
-2,1,-6,-20,-10,-7,-4,-1,251,167,0,182,52
-1,-4,-15,-9,5,6,0,-1,227,167,0,182,52
3,1,17,10,-3,-3,-1,1,190,167,0,184,44
-4,-1,-15,6,-3,-2,-4,-1,149,163,0,182,44
10,1,-12,-21,0,2,1,3,115,163,0,182,44
15,11,-8,12,3,-3,0,2,88,167,0,182,44
-45,-16,9,-3,-7,-4,-1,-6,57,167,0,182,44
6,5,31,7,3,-2,0,-2,47,167,0,182,44
-12,-1,-2,9,-2,-2,-5,-4,30,163,0,182,44
-1,-6,-26,-6,-3,-1,-1,-2,30,167,0,182,40
26,14,18,-7,7,10,0,3,27,163,0,184,44
-7,-1,-9,-1,-5,-3,0,-1,27,167,0,182,48
-2,-4,6,-5,3,3,-2,-1,30,167,0,182,44
-7,2,2,3,2,2,1,-1,47,160,0,182,44
-6,-4,23,8,-5,-6,-1,-3,98,135,0,182,44
15,1,-16,-26,4,1,-2,3,108,135,0,182,44
-3,-4,-10,-3,-3,-1,0,-1,241,117,0,184,44
-11,-3,23,13,-1,-3,1,-2,343,110,0,182,44
17,2,-19,-10,2,-1,0,2,356,103,0,184,44
-10,-8,11,12,-2,-1,-3,-2,380,99,0,182,40
34,13,4,9,2,1,0,7,397,92,0,184,44
-25,-10,16,0,-4,-4,-1,-4,445,81,0,182,40
-21,-6,-32,-16,0,-3,3,-4,533,64,0,182,44
9,2,1,-1,0,-2,3,2,533,64,0,182,44
-14,-2,-7,-8,-1,-1,-1,-1,615,49,0,182,40
22,6,11,8,4,2,1,2,635,46,0,182,40
8,0,7,5,0,-2,-3,0,686,39,0,184,44
-6,0,-4,-1,0,-2,-5,0,710,35,0,182,44
6,-1,-1,0,-4,-1,1,-5,781,21,0,182,44
-9,-4,-28,-10,-3,-6,-7,-5,836,7,0,182,44
4,0,8,-2,-3,1,2,1,880,0,0,184,44
-5,1,9,0,-4,0,-2,-5,958,0,0,182,44
-12,-3,-25,12,-3,-2,-2,-3,975,0,0,182,44
-16,-17,-32,-21,-1,-3,-2,0,999,0,0,182,44
1,8,15,-2,-4,-5,-4,-2,1023,0,0,184,44
14,0,2,10,-1,0,-1,3,1023,0,0,182,44
-13,-7,-9,-19,-3,-3,-4,-5,1023,0,0,182,44
9,10,26,18,1,3,0,2,1023,0,0,184,40
5,1,-14,5,-1,-2,-1,3,1023,0,0,182,44
17,1,3,-26,-6,4,3,0,1023,0,0,184,44
-21,-11,-6,23,-1,-2,-2,-4,1023,0,0,182,44
29,1,-12,-25,1,0,3,3,1023,0,0,184,44
-21,-2,-10,-3,2,-2,1,-1,1023,3,0,184,44
-10,2,25,13,-4,-1,0,-2,1023,3,0,184,44
-3,-9,-14,-2,-4,1,-2,-1,1023,3,0,184,44
3,0,-32,-17,-1,5,0,-2,1023,3,0,182,44
34,3,-20,13,-2,-2,-1,6,1023,3,0,182,40
-15,-5,-17,-1,1,0,0,-3,1023,3,0,182,44
-30,1,21,10,-1,-3,0,-6,1020,16,0,182,44
9,7,28,10,0,-3,-3,-2,942,47,0,180,40
-12,-2,-21,-1,-3,0,-5,-2,873,60,0,178,36
29,8,36,16,5,-2,-2,3,757,70,0,171,32
-15,-16,-72,-21,-5,-4,-7,-3,680,70,0,168,28
-28,-8,1,-22,-9,1,5,-3,644,70,0,168,32
-3,-8,5,5,4,0,-2,-4,547,74,0,166,28
20,6,0,-2,-3,0,3,6,519,74,0,166,28
13,1,30,6,0,-4,-3,-1,445,84,0,166,28
-28,-10,-27,-8,-6,-1,-4,-7,420,84,0,164,32
1,0,11,0,2,0,1,1,356,87,0,164,28
-6,-1,-16,-6,-3,4,2,0,295,91,0,164,28
37,22,14,-6,1,-3,1,6,246,91,0,164,28
-4,-6,16,25,3,3,-2,-1,204,91,0,164,28
-10,-1,28,19,-3,1,1,-2,171,94,0,164,28
-25,-14,-47,-33,-3,-7,-4,-4,135,97,0,164,28
-11,3,0,2,-2,2,4,3,107,104,0,164,28
1,3,52,16,1,-5,-3,-4,91,111,0,164,28
3,-2,-35,-18,-1,1,-2,-1,85,114,0,164,28
-4,-1,17,23,1,0,-2,-1,66,114,0,164,28
3,3,3,-3,1,-3,-3,1,47,114,0,164,28
32,11,0,3,0,8,10,7,30,114,0,164,24
-20,-11,23,5,-3,-1,-4,-6,27,114,0,164,24
-23,-7,-56,-37,-3,-6,-4,-5,16,118,0,164,28
-7,-8,27,4,3,-2,-1,-2,11,121,0,164,28
4,9,16,10,-2,-7,-6,-1,5,121,0,164,28
37,6,-14,3,0,-3,7,8,0,131,0,164,24
-16,-5,-19,7,-1,0,1,-2,0,135,0,164,24
18,2,-4,-24,1,10,3,2,0,148,0,164,28
-50,-5,73,41,-3,-1,-3,-6,0,162,0,164,28
-22,-15,-61,-31,-4,-8,-3,-8,0,165,0,164,28
45,16,38,16,4,-1,1,6,0,172,0,164,28
-49,-11,15,8,-3,0,3,-3,0,185,0,164,28
20,7,1,-1,3,-5,-3,0,0,209,0,164,28
-42,-10,24,8,-3,0,-3,-6,0,222,0,162,28
-2,-6,-31,-11,-5,-2,-4,-6,0,236,0,162,28
34,9,5,-2,3,-3,2,7,0,239,0,159,24
35,6,-8,-5,-2,0,-2,7,0,243,0,159,28
-52,-4,-6,-6,-5,2,-1,-5,0,249,0,159,24
12,-4,8,3,5,-1,0,0,2,263,0,157,28
6,3,28,-5,-6,-1,-1,-2,0,263,0,157,28
-6,-8,-53,-31,-3,-3,2,2,0,263,0,157,28
84,22,34,8,8,5,3,13,0,266,0,157,28
-51,-12,1,0,-14,-11,-7,-13,0,266,0,157,28
-54,-23,-1,11,3,5,4,-6,0,266,0,157,28
3,0,-17,-13,1,0,0,-1,0,266,0,155,28
-15,-5,6,-5,-3,-4,-2,-4,2,266,0,157,28
27,14,14,12,6,2,0,3,0,266,0,155,28
23,10,23,10,1,-6,-2,5,0,266,0,157,28
-22,-18,-63,-24,-9,-1,-3,-7,0,266,0,157,28
-6,-2,0,3,3,-1,3,-4,0,266,0,157,24
-11,-3,15,3,0,1,-2,-2,2,266,0,157,28
21,7,-35,-1,-1,0,-2,1,0,266,0,157,28
15,9,25,2,-4,-2,-1,3,2,270,0,157,28
19,5,3,5,-2,-4,-4,-1,0,266,0,157,28
-44,-26,-18,-7,3,4,5,-5,0,270,0,157,28
6,3,-2,-5,1,1,-4,-3,2,270,0,157,28
8,1,0,-12,-3,-1,1,0,0,270,0,157,28
39,6,14,18,-1,-3,-2,2,0,270,0,157,28
-30,-5,3,-20,-6,1,-1,0,0,270,0,157,28
-11,-19,-28,-8,-1,3,-1,-2,0,270,0,157,28
-2,-1,13,17,0,-6,-4,-4,2,270,0,157,28
5,11,15,0,-5,-2,-1,-2,0,270,0,157,28
0,3,16,10,2,-4,-3,1,0,270,0,157,28
-20,-15,-23,-25,-2,-2,0,-4,0,270,0,157,28
34,11,14,10,0,0,1,5,0,270,0,157,28
-11,-8,-23,-17,-5,-2,0,-4,0,270,0,155,28
2,-2,-6,2,0,0,-1,1,0,270,0,157,28
5,2,15,1,0,1,1,4,2,270,0,157,24
0,-2,-21,-2,1,2,1,-1,0,270,0,157,24
4,-4,18,-2,-2,-4,2,-6,0,266,0,157,24
2,2,4,8,-1,3,1,2,0,270,0,157,24
3,1,0,0,-3,2,-5,0,0,270,0,157,24
18,2,6,9,2,2,0,-1,0,266,0,157,24
-38,-11,-2,-20,0,0,0,-2,2,266,0,157,24
6,3,0,6,0,1,0,2,0,259,0,157,20
0,6,-3,-11,-1,-1,-1,0,0,243,0,157,20
-13,0,4,19,-4,-4,1,0,0,236,0,157,20
-4,1,10,-1,0,-3,-4,-6,0,219,0,155,20
-13,5,-48,-7,4,1,1,-3,0,216,0,157,20
3,3,19,-5,1,2,0,1,2,212,0,157,24
-3,-8,-8,-3,-2,6,0,-2,0,205,0,155,20
9,9,9,16,3,2,-1,3,0,192,0,157,20
2,5,5,-5,-8,-3,-2,1,0,182,0,155,20
46,6,-9,11,3,3,1,3,2,162,0,157,20
-34,2,-2,-8,-5,-6,-6,2,0,148,0,155,20
-8,-10,-14,10,3,3,0,-4,0,135,0,157,20
1,-6,23,5,5,2,2,-4,0,118,0,157,20
-18,-1,-17,-20,-5,-4,-2,-3,0,118,0,157,20
20,6,23,10,0,-3,-1,3,0,114,0,157,24
46,11,-4,-7,-2,-1,0,7,0,114,0,157,20
-27,-20,-6,6,-6,-3,0,-5,2,114,0,157,20
-39,-4,8,4,-3,-3,-1,-8,0,114,0,155,20
3,-3,-19,-4,-3,-1,1,-2,2,114,0,155,20
17,13,14,-3,5,0,0,1,2,114,0,157,20
46,13,11,-3,1,1,4,8,0,114,0,155,20
-33,-12,-6,6,-6,-2,-3,-3,0,118,0,157,20
-4,11,-4,-4,3,0,0,-3,0,118,0,155,20
-12,1,41,23,-3,-3,-2,0,0,118,0,157,20
12,-9,-30,-25,-4,-2,1,-3,0,118,0,155,16
-42,-1,-4,0,1,1,-2,-1,0,118,0,155,20
1,-1,11,5,1,-7,-1,-1,0,118,0,155,20
35,4,-19,-7,-2,3,-1,1,0,118,0,155,20
-41,-6,18,12,-4,0,-4,-6,0,114,0,155,16
8,3,3,-8,1,0,0,2,0,118,0,155,20
26,0,-35,-12,-4,-3,1,4,2,118,0,155,16
-1,1,21,2,1,-2,1,1,0,114,0,155,16
3,9,2,6,6,5,2,4,0,118,0,155,20
-63,-16,-9,6,-4,-1,1,-8,0,118,0,155,20
-12,-8,-13,-37,-2,-4,-5,-3,0,114,0,155,16
23,3,-8,7,-1,-3,-1,3,0,114,0,155,20
-20,-4,-1,-3,-3,-3,-2,-1,0,118,0,152,16
15,8,0,10,4,0,1,-2,0,118,0,152,16
3,-7,13,-10,-4,1,-1,-2,0,118,0,152,16
51,19,-1,4,2,-1,0,0,0,118,0,150,16
-85,-27,-7,-7,-8,-5,-1,-7,0,114,0,150,16
12,-1,13,-4,-2,-1,-1,2,0,118,0,150,16
19,7,13,20,4,4,-1,4,2,121,0,150,16
-15,-6,-7,-11,-3,0,-2,-4,0,124,0,150,16
26,-1,-8,-10,2,0,3,0,0,128,0,150,16
-6,2,-13,-16,4,-5,-2,-2,2,138,0,150,16
-1,-1,-5,7,0,1,-2,-1,2,138,0,148,16
-18,-13,-5,-15,-4,-5,-6,-8,0,138,0,150,16
24,17,22,10,5,5,4,2,2,141,0,146,16
-19,-1,3,17,-3,0,1,2,0,141,0,148,16
-3,-12,23,-1,-2,-1,1,-4,0,138,0,146,16
-20,-11,-17,4,2,0,-5,-5,2,141,0,146,16
10,12,15,-5,-1,0,-1,0,0,138,0,146,16
78,21,9,7,7,2,5,17,0,141,0,146,16
-45,-37,-17,-6,-10,-1,0,-16,0,141,0,143,16
-4,-5,-37,-14,-5,-14,-1,-3,0,151,0,141,12
21,11,11,-5,-1,3,-1,1,2,158,0,141,16
22,7,15,3,2,-3,-5,-4,0,178,0,139,16
71,31,57,28,10,5,5,18,0,209,0,139,16
-52,-21,-16,-4,-4,6,7,-2,0,216,0,139,16
11,-7,-38,-11,5,-5,-3,-5,0,246,0,137,16
-45,-10,-13,-1,-4,0,-1,-4,0,266,0,137,16
18,9,8,-5,-2,-3,-2,3,0,290,0,134,12
0,10,36,31,-2,0,0,0,0,303,0,134,16
21,13,5,7,1,-1,0,0,2,327,0,134,12
-23,-10,-1,-18,-5,3,2,-4,0,347,0,134,16
67,13,-29,-5,7,0,1,9,0,368,0,134,16
-11,-3,-7,-10,-6,0,1,7,0,405,0,134,16
-37,-9,18,5,-11,-17,-11,-12,2,435,0,134,16
9,-9,-13,1,6,-1,-2,-6,2,465,0,134,12
-38,-4,-1,-9,-3,4,0,-2,0,472,0,134,16
87,37,15,2,7,5,4,14,0,499,0,132,16
-76,-31,-10,2,-10,-3,-2,-11,0,567,0,132,12
-6,-10,-28,-12,-4,-5,0,-5,0,594,0,132,16
28,13,8,3,6,0,-2,7,2,665,0,130,12
-4,-8,-10,-9,-4,7,5,-3,0,746,0,125,16
31,4,6,20,3,-4,0,4,0,779,0,125,16
-41,-27,-40,-34,-9,-3,-2,-5,2,803,0,121,12
-18,-3,3,10,-2,-6,-2,-2,0,810,0,121,12
42,15,13,3,4,3,-1,8,2,833,0,123,12
-16,-13,-6,-6,-4,3,-1,-1,0,864,0,121,16
-15,-5,21,22,-1,1,-3,-5,0,871,0,121,16
0,-2,-1,-8,-1,-4,-1,-5,0,874,0,121,12
5,6,5,6,0,-9,-4,-1,0,881,0,121,12
25,13,2,-4,-2,7,1,10,0,881,0,121,12
-32,17,24,12,6,-3,-2,-4,0,874,0,121,12
24,15,31,6,5,0,0,8,0,867,0,121,12
-30,-9,-3,19,-9,2,1,1,0,867,0,121,12
-2,2,-13,7,-1,0,-2,-2,0,871,0,121,12
-25,-32,-31,-40,-8,-10,-10,-15,0,871,0,121,16
52,18,3,-1,9,2,3,5,0,871,0,121,12
35,25,14,14,4,2,1,9,0,874,0,121,16
-40,-22,30,20,0,0,-3,-13,0,874,0,121,12
-18,-16,0,-16,-9,-2,-9,-6,0,874,0,121,12
-3,0,-52,-20,-3,-3,-1,-2,0,874,0,121,12
48,8,-1,-1,1,-5,-1,2,0,874,0,121,12
-28,6,10,14,1,2,1,-2,0,874,0,121,12
-1,3,41,-4,0,2,0,-1,2,874,0,123,12
4,-10,-21,1,-2,-3,0,1,0,874,0,123,12
-8,-1,-15,-20,2,5,5,-4,2,874,0,121,12
25,14,-34,-12,-7,-6,-2,2,0,874,0,121,12
-19,0,3,9,-3,1,1,-2,0,874,0,121,16
11,8,24,14,8,8,4,1,0,874,0,121,12
-28,-14,5,12,-9,-8,-6,-7,2,874,0,123,12
22,17,12,-19,5,6,1,4,0,871,0,121,8
33,-3,6,19,-2,-1,-1,5,0,844,0,121,12
-21,-5,-36,-8,-9,-4,-8,-10,2,827,0,121,12
-41,-19,-14,-10,-5,-5,-2,-7,0,800,0,123,12
5,-11,6,9,2,0,0,-2,0,783,0,123,12
-8,0,-6,-10,-1,-2,-1,-1,0,756,0,123,12
28,7,25,10,7,2,0,5,0,742,0,121,12
14,8,6,4,-1,-1,0,3,0,729,0,121,12
4,9,24,6,-8,-5,-4,1,2,668,0,123,12
-17,-26,-26,2,2,4,3,-2,0,617,0,123,12
-18,-1,25,6,-3,-7,-2,-3,0,560,0,121,12
5,1,-26,-12,-4,3,0,-1,0,496,0,123,12
-20,6,52,11,1,-3,-3,-3,0,462,0,121,8
0,-9,-45,-13,-4,2,1,-2,2,422,0,123,8
7,1,27,9,-3,-4,-3,0,0,374,0,121,12
-4,-6,-27,-13,3,5,3,7,0,300,0,121,12
2,-9,-10,5,2,-1,-3,-5,0,239,0,121,8
-5,-2,39,4,-4,0,-3,0,0,202,0,121,12
-19,-5,-58,-22,-5,-1,-2,-7,0,178,0,121,8
11,10,27,7,8,1,-1,3,0,165,0,121,8
2,-8,-9,-5,-5,-1,-1,-2,0,138,0,121,8
-35,-10,-24,-7,-1,-2,-2,-3,2,114,0,121,8
0,-1,-2,0,1,-1,-3,0,0,104,0,121,8
5,3,37,11,-2,0,-3,-3,0,104,0,121,8
13,4,-35,-20,-4,-4,0,2,0,101,0,121,8
5,-2,15,9,-4,-9,-5,-1,0,104,0,121,8
1,0,-12,-3,7,8,2,2,0,108,0,121,8
1,5,21,5,4,2,1,-2,0,141,0,118,8
-9,-7,-29,-5,0,-4,-2,-1,0,219,0,118,8
2,3,9,0,-4,0,0,0,0,266,0,116,8
-4,-7,2,-6,-4,-3,-1,-5,0,371,0,116,8
-2,-3,-14,-11,-3,-6,-3,-4,2,449,0,114,8
-5,0,5,7,-1,0,-1,0,2,546,0,114,8
5,5,-1,-3,5,-1,-4,-1,2,563,0,114,8
4,1,16,1,1,6,8,0,2,597,0,114,8
-4,-3,-14,-3,-6,-5,-6,-1,0,661,0,114,8
-3,-2,9,1,0,2,3,1,0,719,0,114,8
4,7,-5,-3,1,1,2,-3,0,749,0,114,8
0,-7,-14,5,-7,-5,-5,-1,0,773,0,114,8
-5,-2,5,-10,-4,-8,-4,-1,0,793,0,114,8
2,1,1,-1,4,3,0,0,0,817,0,114,4
-5,-4,-11,-4,0,-2,0,-2,0,844,0,114,8
-1,-1,13,1,0,-2,4,1,0,847,0,114,8
-2,-2,-19,-9,-7,-1,2,-1,0,844,0,114,8
0,7,35,19,2,-2,-2,0,0,844,0,114,8
2,-1,5,-1,1,2,-1,-1,0,844,0,114,8
-1,-2,5,0,-3,-1,-2,1,0,844,0,114,8
-1,-1,-6,-1,4,2,0,-1,0,844,0,114,8
-1,-4,-18,-3,-1,-2,-3,1,0,847,0,114,8
-2,0,3,5,-3,-2,-1,-5,0,854,0,114,8
-1,5,-5,-13,1,-8,-3,0,0,864,0,114,4
0,5,20,1,1,-4,-1,0,0,871,0,114,8
0,-5,-56,-6,-1,-3,-3,-3,0,874,0,114,8
-1,4,2,-5,-3,4,0,0,0,874,0,114,8
0,2,10,-7,-3,-5,-2,1,2,874,0,114,4
2,-4,-4,-4,1,-3,-2,0,0,874,0,114,8
1,-2,15,17,-1,0,-3,0,0,874,0,114,4
-4,-3,-16,-13,-4,-8,-1,-2,2,874,0,114,8
-2,1,7,14,-1,7,3,-1,2,874,0,114,4
-3,-3,-4,-20,4,-1,0,2,0,874,0,114,4
-2,2,0,0,0,1,-4,0,0,874,0,114,4
3,9,13,14,-1,-1,-2,-1,0,874,0,114,8
-3,-7,6,-1,-7,-4,4,-1,0,867,0,114,4
0,-5,-15,-1,6,1,-1,-2,2,840,0,114,4
-2,2,8,3,0,2,1,0,2,803,0,114,8
-2,1,-5,-10,-4,-4,-2,-2,2,759,0,114,4
1,7,12,1,2,-3,-4,0,2,682,0,114,8
0,0,-30,-3,-8,-3,-4,-2,0,627,0,114,8
-1,-4,-4,-11,-4,-6,-2,-1,2,560,0,114,8
1,-7,-10,-6,7,5,3,1,0,516,0,114,4
1,11,18,14,7,4,-1,1,0,496,0,114,8
-4,-11,-7,-1,-5,1,0,-2,0,395,0,114,4
1,3,19,5,0,-2,-3,0,2,286,0,114,4
1,3,8,10,-1,-1,-2,1,2,212,0,114,4
-1,-10,-58,-40,3,3,1,0,2,121,0,114,8
-2,6,31,19,0,0,0,-1,0,74,0,114,8
0,7,28,-3,0,4,0,0,2,67,0,114,4
-3,-10,-37,-8,-7,-9,-7,-2,2,50,0,114,4
0,4,14,6,-2,-1,6,-2,0,27,0,114,8
1,5,-16,3,1,2,0,0,2,27,0,114,4
0,4,27,1,2,2,-1,-2,2,27,0,114,8
-2,-8,-14,-2,4,4,3,1,0,23,0,114,8
-4,1,15,-1,-4,-3,-1,-2,2,37,0,114,4
3,-8,-43,-2,-2,-3,-2,-1,0,135,0,114,8
-2,-8,-1,-1,1,2,-1,-2,2,212,0,111,4
0,6,29,14,1,-5,-3,0,2,283,0,114,4
-2,-10,-19,-11,-7,-8,-5,-3,0,351,0,111,4
1,5,12,-5,2,1,4,1,2,384,0,111,8
1,5,-16,-2,-2,2,-2,2,2,418,0,111,8
-1,-3,13,3,-1,1,2,-2,2,445,0,111,4
-2,-4,-6,-10,-3,-1,-3,-2,2,455,0,111,8
-1,0,13,4,-4,-5,-2,-2,2,482,0,111,4
1,-3,-15,0,1,-1,1,0,2,509,0,111,8
-3,6,14,-4,-2,-2,0,-1,2,509,0,111,4
-1,-9,-48,-9,-5,-1,-3,-1,0,509,0,111,4
-3,3,22,2,-4,2,3,1,0,513,0,111,4
0,4,-12,-4,-3,0,1,-2,0,513,0,111,4
1,2,8,7,3,6,3,1,2,516,0,111,4
-4,-10,-14,-2,-3,-4,-1,0,2,516,0,111,4
-5,-2,24,-6,3,1,-2,-3,0,516,0,111,8
0,-4,-4,6,-5,-7,-4,-1,0,516,0,111,4
-1,2,19,8,1,1,-2,-2,0,516,0,111,8
2,2,-19,-9,-1,4,-2,-1,2,519,0,111,8
2,-1,17,1,-2,-2,-3,0,2,519,0,111,8
-4,-1,2,-16,3,1,0,0,2,519,0,111,4
-1,-1,-16,-1,-5,-7,-3,0,0,519,0,111,8
-2,-6,11,7,2,-1,-1,-2,2,523,0,111,4
0,7,2,5,0,-2,-1,0,2,523,0,111,4
0,-3,-6,-3,-5,-4,-2,-2,2,526,0,114,4
-2,0,-17,-15,6,1,-2,1,2,526,0,114,4
-2,2,44,18,2,-1,-3,-2,2,526,0,116,8
-3,-3,-15,-5,-6,-1,-4,-4,2,526,0,116,8
-1,-1,-4,2,0,3,1,1,2,526,0,116,8
0,-6,-12,0,-3,-1,0,-2,2,526,0,116,8
4,15,32,14,0,0,0,0,2,526,0,116,4
-1,-2,-54,-16,-2,-1,5,-2,2,526,0,114,4
-3,3,1,-8,-4,-11,-4,-2,0,526,0,114,4
1,-6,0,0,2,7,-2,-2,2,486,0,114,4
0,-6,-6,1,-2,1,1,1,2,384,0,116,8
4,4,19,7,2,0,0,0,2,351,0,116,4
-2,2,-2,7,-6,-8,-5,-4,2,300,0,114,8
-4,-19,-27,-28,-9,-2,7,-2,0,243,0,114,8
-4,2,-9,1,2,3,1,-1,0,199,0,114,4
0,0,-1,3,-3,-1,-2,1,2,175,0,114,8
-1,-2,14,4,1,4,-1,-1,2,141,0,114,8
0,5,5,2,7,1,-2,1,0,111,0,114,4
0,-9,-5,-6,-2,-3,-3,-1,0,87,0,114,8
-1,2,19,9,2,1,-1,-2,0,77,0,114,8
-4,-2,-22,-9,2,-7,-3,0,2,50,0,114,4
1,5,3,13,-2,10,7,0,2,6,0,114,8
0,1,17,-7,-3,-5,-2,-1,2,0,0,111,8
-2,-3,-25,-3,4,0,-1,0,2,0,0,114,8
-1,-18,-8,1,-4,-1,-2,-1,2,0,0,111,8
2,15,21,18,1,-4,-2,0,0,0,0,114,8
-1,6,-7,-10,3,5,1,1,2,0,0,114,8
-3,-15,14,5,-5,-4,-3,0,0,3,0,114,8
-1,-1,-10,0,0,5,2,-1,0,16,0,111,8
0,5,2,2,-4,-4,-3,-1,0,68,0,111,4
10,5,13,4,-1,-4,-3,1,2,134,0,111,8
-9,0,0,11,2,3,0,0,2,200,0,109,4
-8,-6,6,-12,3,5,4,-2,2,232,0,109,4
3,-2,14,11,2,-3,-3,-1,0,259,0,109,8
3,5,-4,-2,0,-3,-3,-1,0,288,0,109,8
10,-8,-9,3,-3,-1,2,2,0,324,0,109,8
-22,0,0,-1,-1,2,3,0,2,383,0,109,4
-12,-6,-57,-19,-4,1,-3,-4,0,419,0,109,4
6,6,27,3,4,0,-1,-3,2,452,0,109,4
1,-4,-20,-23,-7,-2,1,-1,2,472,0,109,8
19,5,20,7,-1,2,-1,1,2,495,0,109,4
-9,-11,-2,-14,-1,-5,-7,-2,0,495,0,109,8
-6,4,-5,10,-3,1,5,1,2,498,0,109,8
-22,3,6,-7,1,-2,-1,-1,0,501,0,109,4
8,0,-12,-8,-2,-1,-2,-1,0,508,0,109,8
8,-3,17,5,-3,-4,-5,-3,0,518,0,109,8
-5,-7,-12,-6,-8,-5,-5,-3,0,524,0,109,8
10,1,-2,1,1,-5,1,2,0,524,0,109,4
7,3,11,1,7,4,5,1,0,524,0,109,4
7,13,15,21,-5,-2,2,2,0,527,0,111,8
-12,-14,-35,-18,-1,1,1,-1,2,524,0,109,8
-11,-17,-26,-12,-6,-5,-7,-9,0,527,0,109,4
24,7,-1,-1,-4,-4,-2,4,2,524,0,109,8
19,10,-4,-3,-2,-4,-3,5,2,524,0,109,4
-27,-9,45,0,0,3,-2,-6,2,524,0,109,4
-5,-16,-61,-19,-7,-5,-1,-4,2,449,0,109,8
5,2,25,10,0,-2,-4,0,2,406,0,109,8
7,4,-13,-8,5,4,-3,-2,2,396,0,109,4
25,6,14,20,5,3,5,5,2,373,0,111,8
-32,-10,19,-9,-1,2,0,-1,0,337,0,109,4
-13,-9,-23,-7,-6,-3,-6,-5,2,288,0,109,8
9,6,3,20,-2,1,2,-1,2,222,0,109,8
-2,8,3,-12,-2,1,1,-1,2,200,0,109,8
1,-2,-24,4,-1,3,1,0,0,150,0,111,8
-2,-10,-19,-27,-3,0,0,-1,0,62,0,109,8
-22,-5,4,8,-2,-1,-3,-1,2,26,0,109,8
-12,-4,-23,-10,-6,-3,-4,-8,0,6,0,109,8
25,15,40,9,2,-1,3,5,2,0,0,109,8
13,-3,-18,4,-4,-3,-1,0,0,0,0,109,8
-15,-8,29,-3,0,0,-2,-2,2,0,0,109,8
-8,-5,-53,-13,-1,-1,-3,2,0,0,0,111,8
17,-3,8,3,1,-1,1,-4,0,0,0,111,8
-9,5,1,12,5,7,2,0,2,0,0,109,8
22,0,-6,-6,-3,-1,0,1,2,0,0,109,8
-9,-1,0,2,0,-7,0,3,2,0,0,109,8
6,7,15,9,-2,4,3,-1,2,0,0,109,4
0,-7,0,9,-5,-8,-5,-2,2,3,0,111,8
-5,3,-12,-17,6,2,0,-2,0,0,0,111,8
32,13,20,21,4,7,4,3,2,3,0,111,4
-27,-15,-5,-32,-8,-6,-5,-3,0,0,0,111,8
-4,0,9,-2,4,-3,-2,-4,2,0,0,114,8
14,0,17,18,-1,2,0,4,0,0,15,114,4
-13,-1,3,-4,-6,-2,-2,-2,2,3,25,116,8
12,-1,-22,5,-1,-1,-3,-1,2,3,54,118,8
-7,-3,-22,-6,-1,2,1,2,0,0,56,121,4
7,9,-18,-6,-2,-5,-1,-3,0,3,92,132,4
31,9,21,11,8,2,1,8,2,6,126,141,4
-3,-4,17,13,-2,1,3,-4,0,12,154,150,4
-28,-5,18,-6,-7,0,-1,-3,0,21,177,162,8
-5,-11,-55,-12,-5,-3,-3,-4,2,33,206,175,4
-14,-5,-27,-12,-4,-3,-6,-5,2,46,239,200,4
14,8,9,-4,-1,-3,0,3,0,52,252,207,4
36,7,4,2,6,6,2,6,2,52,257,216,8
4,8,33,4,3,5,6,2,2,61,280,237,4
-53,-26,3,1,-8,-8,-8,-15,2,64,293,248,4
10,6,-35,-2,1,-3,-2,0,2,67,306,260,4
5,6,1,-3,3,-2,2,2,2,67,309,264,4
3,5,12,5,-4,-2,-2,3,2,70,309,267,4
-2,-12,-2,1,-2,-3,-2,-2,0,73,316,276,4
-3,3,-17,-11,1,1,1,0,0,80,322,283,8
-7,-7,5,3,-2,-4,-3,-9,2,80,329,292,4
16,13,8,6,0,-1,0,5,2,83,332,296,4
-39,-14,-10,-3,-7,-5,0,-4,0,83,332,299,4
4,-1,-1,4,5,3,-1,3,2,86,332,299,8
5,6,6,-4,-3,1,-1,2,0,86,332,299,4
-5,-10,4,-1,1,-2,-4,-7,0,86,332,299,8
16,12,12,-5,1,2,1,5,2,86,334,299,4
-1,3,-15,9,-4,-5,-1,1,0,89,334,299,4
-5,-11,-7,-13,0,-1,-2,-5,2,92,332,299,4
-1,3,-13,-6,-6,-4,-3,-2,2,98,304,292,4
8,4,11,-13,2,1,1,4,0,98,275,280,4
2,-5,1,0,-3,-3,-5,-4,2,98,200,255,4
-36,-6,11,9,0,-2,2,-7,2,101,177,251,4
-3,3,13,1,3,4,1,0,2,101,154,244,8
28,15,0,1,5,2,1,2,2,104,74,228,4
-26,-14,16,21,5,-2,-2,-4,0,101,46,203,4
27,9,-5,0,-1,0,1,2,0,104,33,182,4
-22,3,18,7,1,1,2,3,2,107,0,164,4
25,9,4,4,0,-4,-2,0,2,107,0,159,4
-1,-12,-51,-28,-10,2,3,1,2,107,0,148,8
-48,-10,-5,-3,-3,0,-2,-8,2,107,0,146,4
22,7,24,-3,0,-4,-1,4,2,107,0,141,4
-6,-7,-24,-1,1,0,0,0,2,107,0,134,4
-1,2,21,-2,1,1,0,0,2,107,0,125,8
24,2,-8,3,0,-1,3,0,2,107,0,118,4
7,-6,-4,-11,-4,-3,-1,0,2,107,0,114,4
-8,7,8,14,1,2,0,2,2,107,0,107,4
-8,-7,-41,-24,-4,-3,-4,-7,0,107,0,102,4
-9,-11,4,3,1,0,-2,-2,2,107,0,98,4
-29,-6,6,-4,4,4,2,-6,2,110,0,93,4
34,13,12,6,2,0,4,5,2,110,0,93,4
-34,-1,-12,-7,-9,-4,0,-6,2,107,0,93,4
6,-15,-18,14,-2,-2,-1,-1,2,107,0,91,4
14,5,-1,-22,-2,-3,-4,1,0,107,0,91,8
23,7,3,2,2,1,2,4,2,107,0,91,4
-34,-17,13,0,2,3,-3,-5,2,110,0,91,4
-3,7,24,0,0,3,2,-3,2,107,0,91,4
4,-6,-13,7,-1,-2,0,0,2,107,0,91,4
24,4,4,6,-9,-6,-7,2,2,110,0,91,4
0,-7,-29,-17,2,-1,0,-2,2,107,0,89,4
-2,5,18,4,-1,-4,-3,-3,0,110,0,91,4
-7,-6,-5,2,-2,-2,2,-4,2,107,0,89,4
29,6,-2,6,-3,-2,1,1,2,107,0,89,4
-51,0,28,10,-3,0,1,3,2,110,0,89,4
-21,-3,-30,-4,-4,-5,-7,-11,2,107,0,89,4
-10,-4,15,-12,1,0,-7,-5,2,107,0,89,4
-40,-1,-26,-6,0,4,2,-6,0,107,0,91,4
32,-15,15,20,-7,-3,-2,0,2,107,0,91,4
7,5,-14,-12,-1,-2,-1,4,2,110,54,100,4
48,18,15,7,-1,1,3,3,2,107,118,125,4
-17,-10,5,-4,0,-3,-2,1,2,107,175,150,4
-36,-2,1,2,1,-1,0,-3,0,107,203,173,4
-11,2,-4,-10,0,0,1,1,2,110,211,180,4
2,-4,0,-2,3,3,3,-1,2,107,226,189,8
44,22,-2,3,-1,-2,1,12,2,107,239,198,8
55,14,18,-2,-1,-4,0,6,2,107,249,214,4
-92,-43,-36,-3,-9,-3,-7,-16,2,110,252,219,4
-38,-9,-28,-9,-2,-2,-2,-6,0,107,262,226,4
-6,-15,-14,-14,-4,0,-4,-7,2,107,267,228,4
28,20,22,7,2,1,3,3,2,110,270,235,4
57,17,18,10,3,2,1,12,2,110,273,239,4
-5,-1,-1,-2,-2,1,-1,-5,2,110,280,244,0
-40,-5,-14,-9,3,-2,-4,-6,2,110,280,244,4
48,6,-2,-6,0,-5,-5,-1,0,110,283,246,4
-36,-9,-10,-7,-3,-2,0,-6,0,110,286,248,4
9,-2,29,17,1,4,4,8,2,110,293,260,4
20,-6,-22,-6,-6,-6,-4,-2,2,110,301,264,4
-28,-19,-1,0,-4,-1,-3,-6,2,110,306,269,4
-24,10,10,-13,2,0,0,-5,0,114,309,276,4
22,17,2,9,5,-1,0,3,2,114,309,280,8
-23,-25,-39,-14,-14,-6,-3,-4,2,114,309,283,4
2,13,5,17,4,0,0,2,2,114,319,296,4
22,1,19,1,-1,-1,0,5,2,117,324,303,4
5,2,1,-4,0,-2,3,-1,2,117,324,303,4
-14,-5,-6,-18,-4,-1,-4,0,2,120,332,315,4
7,3,-10,5,1,1,-6,1,2,120,332,317,4
25,4,18,5,5,3,4,3,2,120,332,317,8
-2,4,12,9,0,-1,-1,1,5,120,332,317,4
1,3,8,11,2,-1,0,2,2,123,322,317,4
-13,3,-10,-27,0,-1,0,-4,2,129,216,290,4
28,7,24,19,2,-1,-2,8,0,135,131,269,4
-47,-24,-31,-25,-5,4,0,-4,2,138,79,258,4
-8,-6,68,21,4,-3,-5,-9,2,141,46,230,4
-3,3,-34,-19,-1,0,0,-3,2,141,28,212,4
42,19,18,15,6,6,12,13,2,141,5,194,4
17,1,5,-5,-5,-5,-7,-2,2,141,0,180,4
-21,-13,-1,0,-5,-3,-3,-8,2,141,0,175,8
4,5,-28,0,3,4,5,9,2,138,0,171,4
-6,-4,-17,0,-5,-6,-4,-8,2,141,0,166,4
18,-6,-16,5,-1,-4,1,2,2,141,0,155,4
21,3,-11,-10,-1,2,-1,1,0,141,0,148,4
41,20,36,6,8,1,2,7,2,138,0,143,4
-36,-31,-27,-7,-13,1,-1,1,2,138,0,143,4
-18,-4,23,-1,-5,-8,-5,-16,2,138,0,141,4
13,6,-28,-5,2,2,6,12,2,138,0,143,4
-6,-1,23,27,-4,3,3,-10,0,141,0,141,4
35,6,-17,-27,-3,-7,-8,0,2,138,0,143,4
-50,-9,-7,8,-4,-4,-2,-4,2,141,0,166,4
2,-1,22,-23,1,1,0,-3,2,141,0,207,8
31,14,17,24,5,6,3,10,2,141,0,244,4
-12,-27,-54,-41,-8,-8,-9,-12,2,138,0,267,4
6,1,15,12,2,1,-3,5,2,138,0,303,4
6,15,-22,-12,0,-1,-1,-5,2,138,0,333,8
-31,-15,-10,-8,1,4,4,3,2,141,0,351,4
-1,16,22,13,1,-1,2,-1,2,141,0,385,4
0,2,19,14,-3,1,4,9,2,141,0,424,4
-1,-35,-27,-11,7,2,-5,-14,2,138,0,438,4
-56,0,5,-5,-8,-6,5,-7,2,138,0,502,4
10,7,10,13,4,-5,-16,-4,2,141,0,580,4
-6,-13,-20,-16,0,0,-4,-6,2,141,0,639,8
83,10,43,9,4,4,7,11,2,141,0,662,8
-92,-31,-4,-19,-15,-11,-12,-18,2,138,0,689,8
49,12,-47,7,5,-1,1,4,2,141,0,737,8
-6,-11,7,-4,4,4,4,-1,2,138,0,764,4
-37,-6,20,13,-3,-5,-3,-6,2,138,0,764,4
17,2,-16,7,1,5,-1,3,0,141,0,792,8
8,-3,-13,-14,-6,-9,0,0,2,141,0,812,8
34,14,3,-1,3,1,-4,5,2,141,0,833,8
21,4,-6,22,5,7,2,8,2,141,0,844,12
19,8,25,6,-2,-11,-9,3,2,141,0,856,12
-17,-15,-56,-2,-8,-3,-2,-6,2,138,0,872,16
41,13,11,12,6,1,0,5,2,141,0,885,20
-45,13,49,12,2,6,1,-8,2,138,0,892,20
16,-8,-8,1,-5,-5,-7,4,2,141,0,901,24
-34,-14,-17,-36,-4,-3,-1,-5,2,141,0,904,28
4,2,-18,10,0,-3,-1,0,2,138,0,906,24
53,21,52,8,8,3,6,15,2,141,0,915,36
-32,-11,2,13,-3,-3,1,-6,2,138,0,920,44
-16,0,7,-8,-1,-2,-2,-5,2,138,0,924,52
18,4,-37,-23,-1,-2,0,-1,2,138,0,924,52
-3,4,28,18,7,7,6,1,2,141,0,924,56
12,-9,-23,-10,-3,0,-2,-1,2,141,0,924,52
3,0,12,4,1,4,3,3,2,138,0,924,56
2,1,14,-2,-2,-5,-5,-1,0,138,0,924,52
2,3,-17,-3,-2,-2,1,2,2,138,0,924,52
28,4,19,8,-3,-8,-5,-3,2,138,0,924,52
-3,13,12,-14,3,4,7,5,2,138,0,924,52
-36,-17,-20,4,2,0,-1,-10,2,138,0,922,48
9,4,11,-1,1,3,0,3,2,138,0,908,40
-14,-9,-7,-5,-9,-5,-2,-8,2,141,0,881,28
16,14,10,9,1,-6,-4,0,2,138,0,865,24
9,5,7,8,3,5,6,5,2,141,0,844,24
0,-1,13,1,-3,-1,1,0,2,141,0,810,16
1,-7,-8,-11,-4,1,-2,0,2,138,0,794,16
-1,-2,-9,5,-3,-6,-4,-3,2,141,0,780,16
-6,-8,-30,-7,-4,-5,-4,-1,2,141,0,755,16
3,-1,18,2,2,4,2,-1,2,138,0,732,12
-7,-2,-9,-8,-2,-2,-1,-1,2,141,0,698,12
0,1,-13,0,-4,-3,-4,-2,2,141,0,664,12
-19,-2,10,3,2,2,0,-2,2,138,0,580,12
-10,-2,5,3,0,2,0,-4,2,138,0,580,12
7,6,1,3,-1,2,3,0,2,141,0,516,8
1,0,6,-1,-4,-4,-4,1,2,138,0,438,8
-2,-4,3,4,-3,-4,0,1,2,138,0,388,8
-3,-3,-1,-4,5,12,2,0,2,141,0,347,8
-4,3,-6,-9,-6,-4,-1,-2,2,138,0,296,8
-2,-8,-13,0,-1,-3,0,-2,2,138,0,248,8
8,2,1,-12,3,5,-1,1,2,141,0,207,4
-2,-2,-1,4,1,3,1,0,2,138,0,173,8
1,-1,7,10,-5,-4,-3,-3,2,138,0,148,4
-4,1,14,-7,-5,-5,-2,-2,2,138,0,114,4
-1,3,6,-2,4,1,-1,0,2,141,0,89,0
5,3,12,13,1,3,4,2,2,138,0,79,4
-5,-21,-56,-24,-7,-3,-3,-3,2,138,0,73,4
-1,11,43,23,-5,-5,-1,-1,2,138,0,73,4
-1,-6,-8,2,2,4,1,-2,2,138,0,68,0
-4,2,-3,-1,-2,-2,-1,0,2,141,0,70,0
3,9,12,0,-1,-7,-5,0,2,141,0,68,0
-4,-8,-6,9,-2,0,0,-1,2,138,0,68,0
-1,-2,-1,-4,1,5,2,0,2,141,0,68,0
-2,10,19,0,-1,-1,-1,-1,2,138,0,68,0
-2,-7,-3,-19,-1,1,0,-1,2,138,0,70,0
0,-8,-29,-6,-5,-6,-3,-1,2,138,0,73,0
-4,1,1,-2,-1,3,-2,-4,2,138,0,75,0
-4,-4,-12,8,1,-3,-1,-4,2,138,0,102,0
2,2,-6,0,-5,-8,0,0,2,138,0,111,0
-1,-6,-18,2,3,-1,5,-2,2,138,0,134,0
-2,9,4,-13,-6,-1,-5,-2,2,138,0,157,0
-1,-1,-23,-4,4,4,-1,0,2,138,0,207,3
0,-4,2,9,0,1,6,0,2,141,0,228,3
0,-5,7,-13,-1,1,1,1,2,138,0,280,3
2,6,-12,10,6,4,0,-1,2,138,0,331,0
-5,-7,-23,-4,-7,-12,-3,-5,2,138,0,363,3
2,1,10,-9,0,1,-3,-1,2,141,0,379,3
-2,-5,-12,-12,-7,-5,-2,-1,2,138,0,395,0
2,-1,17,15,-4,-5,-1,0,2,138,0,436,0
0,1,8,4,3,1,-3,1,2,141,0,497,0
0,1,-29,0,6,3,4,0,2,141,0,513,0
-3,0,18,-4,1,2,-1,-1,2,141,0,589,0
-2,-4,-7,9,0,3,-1,-2,2,141,0,625,3
-2,3,1,1,-10,-9,-2,-1,2,138,0,646,3
-1,1,1,3,-1,-3,-4,0,2,141,0,689,3
0,1,7,17,11,3,-2,0,2,138,0,728,3
-5,-8,-29,-4,4,4,2,0,2,138,0,764,0
0,-1,18,-10,2,9,1,1,2,141,0,801,3
-1,5,7,2,-8,-6,2,-2,2,141,0,824,3
0,-1,-41,-11,-11,-8,-4,1,2,138,0,844,3
-1,-7,-25,-26,1,3,1,0,2,138,0,844,7
-3,-2,20,3,-6,3,-1,-3,2,141,0,856,3
1,4,-14,-10,1,-2,-1,-1,2,141,0,865,7
-1,-3,-18,-4,-2,0,-2,0,2,138,0,865,7
-1,-2,8,-2,-5,-1,-1,-2,2,141,0,872,3
2,5,19,8,0,3,0,2,2,138,0,876,7
0,-4,4,-18,-1,-2,2,1,2,138,0,876,7
1,0,7,3,1,-2,-3,0,2,138,0,876,11
-6,3,13,10,3,-4,-2,-2,2,138,0,876,11
3,10,29,15,1,1,1,1,2,141,0,879,19
-5,-9,-34,-4,-7,-6,-3,-2,2,138,0,879,19
0,0,2,4,-2,-3,0,-2,2,141,0,879,23
0,0,-27,-5,-4,1,-2,1,2,141,0,881,23
-5,-6,11,-5,-1,-2,-1,-3,2,141,0,881,23
0,2,13,14,1,-2,1,1,2,141,0,881,23
0,-6,-37,-21,-1,3,0,0,2,138,0,881,23
-2,4,13,10,-1,-2,-3,-3,2,141,0,881,23
1,0,-19,-10,-1,-3,-1,-1,2,141,0,883,23
0,-3,5,0,-1,4,1,0,2,141,0,883,23
0,2,1,0,0,1,3,2,2,141,0,883,23
3,-1,28,-1,5,4,-3,1,2,138,0,881,23
-4,-8,-35,-10,-7,-4,-1,-1,2,138,0,883,19
1,2,-2,9,-4,-6,1,-1,2,141,0,881,19
-3,-6,15,-6,-8,-9,-5,-4,2,141,0,879,19
1,5,4,-5,4,3,3,-1,2,138,0,842,15
-2,-5,-20,6,2,1,2,0,2,138,0,826,19
-1,2,14,-1,-2,0,-1,0,2,141,0,764,15
1,5,3,4,-3,-3,-4,1,2,141,0,748,19
-2,-2,42,4,-6,-2,0,0,2,138,0,737,19
-6,-9,-5,1,-1,-6,-5,-5,2,141,0,723,19
1,6,1,6,1,3,1,-2,2,138,0,712,15
-1,2,15,-8,-3,-4,-2,-2,2,141,0,698,19
0,-4,-12,-7,3,2,-2,-1,2,141,0,621,19
5,1,-26,9,3,9,1,3,5,138,0,550,15
-5,-5,16,-15,-6,-12,-8,-4,2,141,0,511,15
1,5,7,-9,3,3,-2,0,2,138,0,481,15
-1,1,-26,2,-5,-7,-5,-2,0,141,0,447,15
1,2,19,1,0,3,2,-1,2,138,0,406,15
3,3,6,5,-1,-2,-2,0,2,141,0,340,11
2,-1,-23,2,-1,-2,0,-2,2,141,0,285,7
-4,-8,-6,-20,3,3,-1,-1,2,138,0,244,11
-1,-1,7,1,0,-2,-1,2,2,141,0,210,7
-6,2,11,12,5,8,-1,-1,2,141,0,210,7
-6,0,0,-4,-1,2,1,0,2,138,0,164,3
10,-8,-40,0,-6,-3,0,0,2,138,0,148,3
-17,1,23,14,-3,-7,-5,-3,2,141,0,139,0
20,11,11,6,1,5,1,2,2,141,0,134,3
9,3,-3,-3,-1,-4,-3,-2,2,141,0,127,0
-15,-1,10,3,-1,0,-2,-3,2,138,0,125,0
-11,-1,-9,-5,2,1,-5,-3,2,138,0,121,0
-2,-4,19,18,-3,0,2,1,0,141,0,121,0
21,3,-25,-16,-4,-2,2,6,2,138,0,118,0
25,-4,-15,-12,-3,-6,-1,2,2,141,0,118,0
-20,5,25,-7,-2,4,-2,-3,2,141,0,114,3
9,6,26,15,-2,-5,-3,0,2,141,0,102,3
16,7,-14,1,6,6,0,8,2,141,0,86,7
-9,-5,-16,-10,-5,-1,-2,-3,2,141,0,75,7
-2,-6,35,2,-3,-6,-4,-5,2,141,0,70,7
22,1,-28,-11,5,3,3,4,2,138,0,66,7
-7,5,3,14,4,5,4,6,2,138,0,66,11
-31,-8,-9,0,-2,-3,0,-8,2,141,0,61,11
-3,-1,14,3,-3,-1,-5,-7,2,138,0,61,15
-81,-22,8,6,-4,2,-2,-4,2,138,0,61,15
-14,-15,-34,-28,-8,-7,-2,-4,2,141,0,61,19
19,9,-11,6,2,2,2,7,5,141,0,61,23
1,-8,-7,2,-3,-5,-7,-5,2,138,0,61,31
0,14,31,16,0,3,6,1,2,141,0,61,47
6,-13,-49,-12,-6,-2,-3,-1,2,141,0,61,59
4,3,23,-7,4,0,-1,2,2,141,0,61,87
-18,0,18,3,-3,-5,-2,-6,2,141,0,70,123
18,2,-23,-11,-2,2,1,1,2,141,0,75,143
17,8,16,4,4,4,5,7,2,141,0,105,171
1,-7,6,4,-2,-5,-5,-3,2,141,0,121,187
1,-5,-5,-28,-1,-1,-1,-3,2,138,0,134,203
8,14,22,19,4,1,0,5,2,141,0,143,207
5,-6,0,0,2,-2,-3,-2,2,141,0,150,211
-5,8,-4,-3,3,1,2,-1,2,141,0,173,223
4,3,4,11,-2,4,1,-2,2,138,0,187,227
-6,-12,-10,-9,-2,-2,-1,-2,2,138,0,221,239
-10,5,-11,6,-3,-2,-1,-4,2,138,0,246,243
6,3,28,-5,3,2,0,1,2,138,0,262,243
-26,-12,0,15,1,-3,-2,-4,2,138,0,264,243
27,8,-2,6,-1,6,2,7,2,141,0,301,243
0,5,21,9,3,4,3,2,2,138,0,310,247
-4,-8,-18,-14,-7,-8,-4,-2,2,141,0,335,243
-22,-3,9,2,-4,-2,-1,1,2,141,0,349,247
-27,-11,21,-5,-5,-5,-5,-13,2,141,0,356,243
-2,3,-21,-12,0,-2,-3,-3,2,138,0,358,247
12,3,12,3,-1,0,1,5,2,138,0,363,243
12,-1,-25,-5,-5,-1,1,-2,2,141,0,369,247
-19,-3,-13,0,-2,-6,-1,0,2,141,0,374,247
8,20,31,12,2,9,2,1,2,138,0,379,243
-10,-12,-22,-10,-5,-4,-2,0,2,141,0,390,247
14,7,-27,4,4,-1,0,2,2,141,0,390,243
21,8,30,5,2,-1,0,2,2,141,0,390,247
-27,-6,-4,-2,2,1,-2,-6,2,141,0,392,247
-4,-3,13,8,4,2,-3,-2,2,138,0,392,247
-20,-12,-10,1,-5,-11,-3,-6,2,141,0,390,247
25,5,2,-6,-2,4,-3,4,2,141,0,385,243
-35,-2,24,18,1,5,4,-3,2,138,0,367,247
9,18,27,11,2,1,-1,1,0,138,0,353,243
26,-9,-48,-18,-4,-3,1,4,2,141,0,321,239
-19,4,45,17,-2,-5,-6,-2,2,141,0,251,235
4,-20,-53,-27,-7,-6,-3,-3,5,141,0,194,231
30,14,19,5,8,6,3,3,5,141,0,194,231
-18,-1,-11,3,-3,1,0,-5,2,141,0,178,219
-18,-16,-29,-14,-7,-5,-7,-7,2,138,0,164,155
14,-3,20,-11,-4,-6,-4,0,2,141,0,164,127
7,6,6,7,4,3,0,-3,2,138,0,152,39
-6,-1,11,8,-1,0,0,3,2,141,0,141,19
3,-12,-47,-13,-6,-3,-2,-1,2,138,0,125,11
-26,9,25,7,1,3,0,-3,2,138,0,114,3
22,-4,-4,-12,-2,0,1,1,2,141,0,107,0
-36,-10,-17,2,-3,-2,-5,-7,2,141,0,91,0
32,9,-2,-4,2,0,-3,6,2,138,0,75,0
-5,-7,5,3,0,-4,-6,-1,2,138,0,73,0
2,-2,15,1,-4,-3,4,-1,2,141,0,68,0
22,9,12,1,1,6,6,8,2,138,0,63,0
-6,-3,-17,-6,-8,-5,0,-1,10,141,0,54,0
-11,-2,22,9,0,-4,-2,0,10,138,0,52,0
-6,-2,-44,-11,-4,-4,-2,-3,12,141,0,45,0
14,1,54,9,1,0,-2,0,15,138,0,38,0
-5,10,-19,0,6,4,1,-3,15,138,0,34,0
17,-8,-71,-19,-5,-2,1,5,17,141,0,31,0
-16,6,46,6,1,-2,-3,-7,15,138,0,31,0
-7,-9,-8,5,-1,-2,-1,0,17,141,0,31,0
-70,-28,-37,-5,-13,-2,-3,-6,22,141,0,31,0
8,4,-1,3,-1,3,1,0,25,141,0,31,3
5,7,28,10,-1,1,1,-3,22,138,0,29,3
-13,-3,-25,-10,3,3,-3,-1,22,138,0,29,3
42,19,12,4,-1,0,7,9,22,138,0,0,3
-12,-4,3,2,0,-3,5,-4,22,138,0,0,7
-39,-23,-5,3,-11,-4,-10,-2,22,141,0,0,7
-3,7,27,3,1,-3,-5,-5,27,138,0,0,19
37,7,-6,-14,3,-2,-1,0,27,141,0,0,23
24,10,8,8,3,3,0,2,30,141,0,0,27
-15,-3,2,-15,0,-3,-5,-3,30,141,0,0,27
37,3,-19,3,-4,-4,2,6,27,141,0,0,63
30,1,-33,7,4,-1,2,2,27,141,0,2,86
4,-10,1,-19,-5,3,0,8,30,141,0,2,102
-15,6,16,-2,1,-2,-1,-7,27,141,0,8,126
-48,-9,-4,5,-8,-3,-3,-6,27,141,0,8,134
51,19,15,7,5,1,-1,7,27,138,0,13,165
-43,-17,-12,-12,-14,-8,-3,-10,27,141,0,13,177
-13,-13,-24,-11,-1,2,-2,-6,27,141,0,11,209
-1,12,-8,3,1,-4,-6,-4,30,141,0,13,244
-10,-7,16,9,-6,-3,6,-3,27,138,0,24,323
44,13,-16,-29,0,1,-1,4,27,141,0,30,359
-37,-21,-5,-2,-9,-4,-7,-4,27,138,0,35,363
-9,-2,-5,3,0,-4,-14,-2,30,138,0,39,363
-10,0,-13,-9,2,-1,7,4,27,141,0,55,359
32,14,45,18,-2,-3,0,2,30,141,0,63,347
-19,-6,-43,-23,-3,-3,0,0,30,138,0,90,177
-10,-8,3,11,0,3,4,-7,30,138,0,90,106
7,8,-9,-12,2,6,6,2,30,141,0,90,51
-37,-12,8,-10,-3,0,0,-4,27,141,0,90,27
57,4,2,2,1,-3,-5,6,27,141,0,90,27
-58,-1,18,5,-4,-3,-3,-10,30,138,0,90,31
-2,-8,0,16,0,-1,2,-1,27,141,0,90,31
13,10,-38,-19,-2,-5,0,3,30,141,0,90,27
35,4,-1,-4,4,2,0,3,27,141,0,90,27
52,-3,-5,-3,0,6,5,9,27,138,0,90,31
-44,7,43,17,0,5,1,-7,30,141,0,90,27
8,-7,-6,0,1,-3,-3,-6,27,141,0,92,31
-64,-11,10,23,-6,-1,-5,-8,30,141,0,90,27
3,-4,11,-36,-5,-2,0,0,27,141,0,90,27
0,-4,-47,-18,-4,1,1,-6,30,141,0,90,31
-64,-29,-36,-12,-13,-11,-7,-9,30,141,0,90,31
25,4,34,13,8,-1,7,5,30,141,0,90,31
15,-1,-17,8,1,3,-3,-1,30,141,0,90,31
8,12,35,27,-3,1,-3,2,30,141,0,90,31
-10,8,-33,-26,0,-5,-4,-6,30,138,0,90,31
23,1,6,7,0,4,3,7,27,141,0,92,31
17,9,8,2,0,0,4,1,30,138,0,90,31
-34,-24,-55,-27,-14,-10,-5,-8,27,141,0,90,31
-23,26,35,11,5,1,3,8,27,138,0,90,35
5,-28,-18,-15,-11,-1,-3,-8,27,138,0,92,31
23,21,52,22,10,1,-1,0,27,141,0,90,35
-3,-11,-33,-22,-8,-3,-2,-4,27,141,0,90,31
-16,-13,-13,3,-2,-6,-6,-10,30,141,0,92,31
17,24,17,14,3,4,5,11,27,141,0,94,35
-19,-15,5,-19,-5,-7,-4,-8,30,138,0,94,31
7,10,32,15,-1,4,0,3,30,141,0,94,31
31,5,7,5,0,9,6,6,27,138,0,94,35
-11,-19,-26,-26,-10,-4,0,-1,27,138,0,94,43
-30,9,17,13,0,-4,-5,-6,30,138,0,94,43
34,-6,22,-1,1,8,5,6,27,141,0,97,47
-15,-23,-96,-30,-5,-2,1,-4,27,141,0,94,43
42,27,40,18,8,3,8,4,30,138,0,94,47
13,-15,10,16,-7,-6,-6,1,27,141,0,94,51
-60,-30,-4,-3,-4,-7,-8,-10,27,141,0,94,51
18,20,26,-5,-2,5,10,0,27,141,0,94,59
7,-20,-34,-9,4,3,-3,2,30,141,0,94,63
-9,-14,30,-3,-11,1,2,-11,30,138,0,94,71
28,15,71,18,3,-1,-2,2,30,141,0,94,106
-19,-14,-61,-27,-3,5,4,5,30,138,0,94,122
18,9,-6,-3,-2,-3,-8,1,27,138,0,94,161
-32,5,-12,3,0,-2,-6,-11,27,138,0,94,221
47,10,45,16,1,-2,-1,6,27,141,0,94,240
-49,-19,8,-2,-1,5,3,-6,27,138,0,94,256
17,-10,3,4,0,-5,-4,8,30,141,0,94,308
-66,2,8,7,-1,-6,-2,-12,30,141,0,97,327
-27,-1,-61,-23,-9,-10,-8,-9,27,141,0,94,394
43,9,-5,-2,-1,-2,-2,3,27,138,0,94,414
6,-4,11,13,1,-2,-1,4,27,141,0,97,442
-14,-10,25,1,-5,-6,-7,-3,27,141,0,99,473
-13,6,-5,0,1,-2,1,-4,27,141,0,101,501
27,-9,-37,-11,1,3,0,5,30,141,0,108,552
-14,8,16,2,-1,-3,-1,-6,27,141,0,110,564
-11,-2,12,13,2,0,-5,1,27,141,0,116,592
8,-10,-49,-20,-2,-6,-5,-1,27,138,0,123,608
11,12,30,10,2,-1,-2,2,30,141,0,136,635
-4,9,26,-5,2,4,-1,-3,27,141,0,138,647
2,2,-2,17,2,2,0,1,27,138,0,147,667
-10,-5,-23,-9,1,3,-2,-1,27,138,0,156,683
32,10,24,1,4,-1,-1,3,27,138,0,169,710
-27,-16,11,8,-8,-1,-1,-8,27,141,0,182,730
12,-1,-19,-2,-2,-3,1,6,30,141,0,191,742
-26,-8,9,3,3,0,-1,-4,27,138,0,200,750
-4,-3,-26,-7,-4,-4,-3,-2,27,138,0,211,762
16,5,3,-6,4,3,4,-1,27,138,0,222,766
16,4,0,-2,-4,-5,-1,1,27,138,0,224,766
-9,1,-12,-9,-1,0,-2,1,27,141,0,231,766
-9,-4,3,-3,-2,-7,-3,-3,30,141,0,235,770
6,4,-1,-5,1,0,2,0,27,141,0,253,766
-12,-12,1,-1,-3,0,-2,-2,27,141,0,257,766
7,8,0,2,-1,8,0,0,27,138,0,275,766
-2,1,-8,-6,3,-2,1,-1,27,138,0,297,766
6,-1,-2,-1,-6,-4,0,-1,27,141,0,304,766
-3,-3,-7,5,-2,-3,-3,0,27,138,0,324,766
-8,-1,-2,-5,-4,-3,-1,-4,30,141,0,335,766
4,0,7,0,4,5,1,-1,27,141,0,359,766
-1,5,15,4,0,-2,0,0,27,141,0,377,766
0,-2,-15,-5,0,0,-1,-1,27,138,0,383,766
3,-2,-3,-9,0,0,3,1,27,138,0,383,766
-5,-2,6,4,-3,-3,-4,-2,27,138,0,388,766
3,4,-18,-6,-2,0,-2,1,30,141,0,396,766
0,-7,16,1,-3,-4,-2,-1,30,141,0,407,766
-5,-6,-22,-2,0,-2,-2,-2,30,141,0,427,766
4,11,15,-3,4,2,4,2,27,138,0,432,766
-6,-13,-42,8,-5,-4,-6,-2,30,141,0,434,766
-3,3,-6,1,1,0,1,0,27,141,0,436,766
4,6,25,16,4,1,-3,1,27,141,0,438,766
-1,7,12,2,5,6,4,0,30,141,0,440,766
2,-3,-27,-7,-5,0,3,1,27,138,0,440,762
-6,-9,12,-8,-1,0,-3,-1,30,141,0,443,766
-1,4,6,3,0,-3,0,2,27,141,0,445,766
0,1,20,1,-6,-3,-3,-2,30,138,0,445,762
1,4,-14,0,3,5,2,2,30,138,0,445,762
-1,-5,-14,8,0,1,2,-1,30,141,0,445,762
1,-1,4,-16,5,2,2,-2,30,141,0,445,762
-1,-1,-20,1,-3,1,-2,-1,27,141,0,445,762
-1,-7,-4,1,1,-2,0,-1,30,141,0,445,766
-1,5,-6,-9,2,-1,4,1,30,141,0,447,766
-2,-3,7,-7,-2,-1,0,-2,27,138,0,445,762
-1,-2,1,12,-1,-7,-3,0,27,138,0,445,746
5,6,38,6,-1,8,5,1,30,141,0,445,714
-4,-9,-47,-28,-3,-7,-6,-4,27,141,0,445,699
0,7,35,25,-2,-5,-4,-3,27,138,0,445,679
-1,-5,-2,4,4,2,0,0,30,141,0,447,675
-1,5,-8,6,2,2,2,1,27,138,0,445,675
1,-7,25,-1,-3,-1,-1,0,30,141,0,445,679
-5,3,20,4,-6,-12,-6,-5,27,138,0,445,683
-1,1,-12,-9,-1,3,-2,0,27,141,0,445,679
-2,-7,4,-4,2,-2,0,-1,30,141,0,445,679
0,-2,14,-2,4,10,2,1,27,138,0,445,679
0,-3,-40,-15,-8,-4,-2,-2,27,138,0,445,683
-1,0,39,19,1,-2,-1,-2,27,138,0,445,683
1,2,-34,-9,2,1,-4,1,27,138,0,445,683
0,4,19,6,-6,-5,-1,-2,27,141,0,445,683
-5,-11,5,-13,-1,0,0,-1,30,141,0,445,691
1,3,-16,2,-1,-1,-1,-1,27,141,0,445,695
0,-1,15,6,4,3,7,3,27,138,0,443,699
-4,-2,-9,-2,-4,-1,-1,-3,30,138,0,443,699
0,1,-15,4,-3,-3,-5,0,27,138,0,440,710
1,-10,17,3,-1,-1,0,0,27,138,0,438,730
-2,-1,10,8,2,-1,0,-3,30,138,0,432,762
2,2,4,11,-1,1,-1,1,27,138,0,429,782
1,-1,22,-15,-3,0,1,-2,30,141,0,427,793
-2,2,23,2,0,-3,-3,-3,30,141,0,427,805
2,3,6,3,3,0,-1,1,30,141,0,425,837
0,5,-6,3,-4,-2,-1,-2,27,138,0,423,861
0,-10,-37,-34,-3,-1,4,1,27,138,0,414,904
-1,7,31,14,-2,-3,-1,-1,30,141,0,412,912
0,2,11,19,2,6,0,1,30,138,0,410,940
0,3,-23,-1,0,1,0,2,27,141,0,407,951
-5,2,16,-9,-6,-8,-4,-3,27,141,0,396,1011
-3,-5,-9,-4,-7,-9,-2,-4,27,138,0,390,1023
3,4,18,22,3,5,-3,-1,30,138,0,388,1023
-3,-10,-38,-26,-5,-6,-2,-1,30,141,0,379,1023
-1,1,0,-6,-3,-1,-1,-1,27,141,0,374,1023
-3,-2,18,-5,-2,0,0,1,27,141,0,368,1023
1,6,-48,-35,-7,-2,-1,-1,30,138,0,354,1023
0,4,43,37,-4,-7,-10,-3,27,141,0,352,1023
-4,-11,-39,-34,-3,-3,-1,-3,27,138,0,352,1023
-1,3,11,5,6,2,3,2,30,141,0,350,1023
1,-2,-23,-5,1,2,-1,2,30,141,0,350,1023
-1,-1,0,6,-1,0,-1,-1,27,141,0,350,1023
3,1,19,12,0,5,0,1,27,141,0,350,1023
-2,-2,-30,-8,-3,-3,0,0,27,138,0,350,1023
0,-3,28,0,-4,-5,0,0,30,141,0,350,1023
0,-1,-6,-15,3,3,2,0,27,138,0,348,1016
1,5,20,25,3,-1,3,0,30,141,0,350,983
7,2,-16,-18,-5,-4,-2,1,30,141,0,348,949
-7,-12,1,10,-1,-3,-3,-2,27,138,0,348,885
24,15,6,2,-2,-2,-1,5,30,141,0,348,879
-25,-2,15,5,2,0,-2,-3,30,141,0,350,876
-15,-9,-6,2,-2,0,-5,-9,30,138,0,348,855
-24,-5,-4,4,3,4,5,-1,30,141,0,348,836
0,-4,4,-1,-6,-4,-3,-2,30,141,0,350,815
23,1,15,9,1,0,0,4,30,141,0,348,793
19,3,-8,-21,-3,-1,3,1,27,141,0,348,784
-10,-12,-14,1,-6,-5,-5,-5,27,141,0,350,772
-1,3,-8,8,5,5,3,3,30,141,0,348,757
-2,-1,7,-11,2,0,-5,-2,27,138,0,348,754
-2,0,-11,-3,-1,1,4,0,27,141,0,348,757
4,-4,0,2,-5,3,0,1,30,141,0,348,754
8,6,5,9,3,2,0,-3,27,141,0,348,757
10,6,16,-4,-1,2,1,1,30,138,0,348,754
1,-3,-3,-11,-5,-2,0,3,30,141,0,348,754
3,-10,-10,-16,-1,-4,-3,-3,27,141,0,352,754
9,1,4,4,-1,0,0,-1,27,138,0,352,754
2,4,0,-1,1,-5,-2,0,27,138,0,352,754
9,8,12,8,2,6,4,6,27,138,0,354,754
-17,-9,-2,-1,-1,2,4,-6,27,141,0,354,757
5,1,-4,4,-2,-3,-3,2,27,138,0,354,754
-30,0,1,6,0,0,4,-2,27,141,0,357,757
3,-4,-9,-4,-7,-7,-5,-6,27,138,0,354,757
3,7,14,9,3,3,-1,1,30,141,0,354,763
6,1,-13,1,-2,-2,0,0,27,141,0,354,775
9,0,-37,-19,-2,1,1,1,27,138,0,354,787
-1,-7,4,-2,-1,-6,-2,-3,30,141,0,354,839
-4,7,39,19,1,1,-3,-2,27,138,0,354,870
-7,-10,-45,-21,-4,-2,2,-1,27,141,0,354,891
18,5,-2,-4,0,-3,-2,2,27,141,0,354,910
7,3,7,10,-1,-3,-2,-1,27,141,0,354,922
1,0,20,2,-2,1,0,2,27,138,0,354,934
-16,-2,49,10,2,-1,0,0,27,138,0,350,943
16,-12,-79,-34,-1,2,-4,-2,27,141,0,348,946
1,4,7,5,-2,1,1,1,27,141,0,346,943
-25,-9,36,2,-4,-4,-4,-10,27,141,0,346,943
3,-3,-26,3,0,0,-1,2,27,138,0,343,943
29,5,-12,-19,-3,2,-1,3,30,141,0,343,946
-2,-3,-11,0,-4,0,-5,2,27,141,0,343,943
-19,6,17,7,-3,-1,5,2,27,141,0,341,946
9,-6,-13,2,-3,-3,-3,-4,27,138,0,343,943
-41,-10,-8,-10,-5,-5,-2,-11,27,141,0,343,937
-14,-3,-8,4,1,0,-1,-3,30,138,0,346,928
20,2,-8,-5,-1,2,1,10,27,141,0,350,925
-9,-4,-1,-6,0,-1,0,-5,30,141,0,354,916
20,9,5,12,5,1,0,5,30,138,0,354,910
14,6,-3,-8,-1,4,6,3,27,141,0,361,897
24,-1,-39,-1,-5,-9,-4,2,30,138,0,365,879
-26,-1,-1,-12,2,3,0,-4,27,141,0,377,864
-21,-5,34,7,-2,-4,-4,-7,27,141,0,379,861
-21,-9,-1,-4,-3,-2,-3,-3,30,141,0,379,858
18,5,-3,2,0,0,2,3,30,141,0,379,855
1,6,32,3,-4,0,-1,1,30,141,0,392,845
25,7,-26,2,1,1,1,5,27,141,0,410,845
19,-5,-35,-19,-1,2,11,-3,27,141,0,414,845
-65,-21,10,-13,-12,-3,-12,-13,30,141,0,429,842
34,6,-42,-20,0,-3,-5,4,30,141,0,440,842
-2,0,1,10,2,2,6,1,30,141,0,458,842
-10,-3,-3,-6,-6,-8,-6,-3,27,141,0,474,842
32,10,12,0,-2,0,-1,-4,27,141,0,489,842
-38,-10,-22,-5,-5,-2,-3,0,30,138,0,509,842
13,6,8,3,3,0,2,1,27,141,0,515,842
-7,0,15,0,4,3,0,0,27,141,0,531,842
28,2,-2,-7,-4,-1,3,4,27,138,0,540,842
-23,-3,-9,7,-3,-2,-2,-2,27,141,0,546,842
16,10,30,8,1,-2,0,-2,27,141,0,555,842
0,-10,-60,-8,-2,0,1,-1,30,141,0,557,842
12,6,-25,-8,1,-1,-3,3,30,141,0,562,842
-6,9,39,22,-2,2,4,-2,30,141,0,568,842
6,0,-7,-17,-1,-3,-3,0,27,138,0,575,842
-22,-19,-48,-7,-7,-7,-6,-7,27,141,0,577,842
3,-7,-9,3,3,4,0,-3,27,138,0,582,842
40,17,32,12,2,3,2,7,30,141,0,590,842
-4,1,-12,-3,-6,-3,4,6,27,138,0,597,842
-8,7,13,-8,0,1,-1,-3,30,141,0,601,842
-47,-27,-5,-6,-3,-1,-8,-17,30,141,0,606,842
0,-6,-14,1,-2,-5,-5,-4,27,138,0,606,842
43,9,-9,-2,-5,-4,-2,14,27,141,0,610,842
-76,-17,19,7,-9,-9,-1,-21,27,138,0,615,842
-1,-13,-41,-16,3,2,-3,-4,27,141,0,617,842
-5,4,8,9,0,2,4,0,27,141,0,621,842
32,14,0,-2,2,-1,-1,6,27,141,0,621,842
40,6,3,6,-2,-3,1,15,30,141,0,623,842
-31,-9,14,5,-6,-3,-3,-13,27,141,0,623,842
-22,-4,-8,-2,5,3,-4,-5,27,141,0,623,842
8,0,8,-8,-6,-5,2,-1,30,141,0,626,842
8,1,11,8,3,3,6,3,27,141,0,623,842
-19,-2,-44,-21,2,4,2,-3,30,141,0,626,842
8,-2,0,-1,2,-2,-3,-3,27,141,0,623,842
-35,-8,8,8,-2,1,1,-2,27,141,0,623,842
22,7,17,3,0,-1,-3,0,27,141,0,623,842
-13,-2,2,5,-1,3,2,0,27,141,0,612,842
19,2,0,-4,4,0,-3,1,27,141,0,593,830
-15,-2,-13,-8,-5,2,2,-1,30,141,0,586,803
-10,-3,-27,-5,1,-3,-4,-3,27,141,0,544,720
-8,-11,-7,-4,2,-6,-1,-3,27,141,0,524,693
16,9,5,-2,2,13,5,1,27,141,0,511,674
-13,-3,-2,4,-8,-4,-3,-3,27,141,0,485,641
-17,-5,-1,-8,-1,-4,-4,-6,27,141,0,425,595
55,19,26,6,9,2,5,7,27,141,0,374,567
-39,-12,-8,1,-6,2,1,0,27,141,0,330,546
7,11,37,12,-1,0,0,-3,30,141,0,315,540
5,-19,-12,-17,-11,-5,-3,2,27,141,0,284,522
-59,-7,13,-11,-2,-3,-1,-9,27,141,0,277,506
57,14,26,7,6,1,0,7,30,141,0,266,485
-7,10,20,9,-1,5,6,4,30,141,0,253,442
-15,5,27,25,-5,-7,-6,-3,27,141,0,240,375
6,-16,-70,-28,-6,-6,-5,-3,27,141,0,231,308
43,22,28,7,6,1,0,3,27,141,0,229,280
-15,1,28,20,1,5,2,7,27,141,0,222,210
-13,-18,-42,-37,-10,-5,4,-7,27,141,0,211,161
14,-2,-18,-5,4,-4,-4,-5,30,141,0,205,137
31,19,22,18,7,6,6,7,27,141,0,202,128
-85,-35,-21,-21,-20,-7,-2,-6,27,141,0,198,116
-3,1,28,1,6,-2,-2,-1,30,141,0,198,112
59,20,45,17,1,-1,2,11,30,141,0,198,116
-52,-36,-120,-54,-12,-3,-6,-9,30,141,0,196,116
-17,-16,-10,-4,-5,-7,-7,-12,30,141,0,198,116
44,23,22,2,8,2,1,5,27,141,0,198,119
13,8,-34,10,4,-6,-3,2,27,141,0,198,122
-15,3,36,11,0,5,13,0,27,138,0,198,137
-12,-20,-2,-11,2,3,0,-2,27,141,0,198,158
2,11,1,13,4,5,6,2,30,141,0,198,189
30,14,22,14,1,1,5,8,27,141,0,198,198
-31,-16,-12,-2,-8,-5,-11,-13,27,141,0,198,222
11,-4,-19,-21,-4,-3,3,0,27,141,0,198,235
-9,2,12,16,-1,-6,-12,-2,27,141,0,198,271
-37,-3,-5,-5,-8,-3,1,-4,27,141,0,198,283
-8,-12,4,5,2,-1,-1,-2,30,141,0,211,305
-29,0,-1,0,-2,-1,5,-6,27,141,0,227,308
9,12,29,13,2,-4,-9,-2,30,141,0,235,308
85,10,0,0,10,7,7,13,27,141,0,262,311
15,21,12,-12,-8,1,3,9,27,141,0,277,311
-99,-68,-4,7,-9,-9,-9,-26,27,141,0,284,311
27,6,-4,-7,7,1,0,0,27,141,0,302,314
-13,-7,0,-9,-4,-1,0,-6,30,141,0,313,314
53,13,-1,7,4,-5,-5,10,27,141,0,352,311
-2,10,24,18,8,4,6,1,30,141,0,377,314
-7,-3,15,-1,-2,-8,-6,-5,30,141,0,399,314
43,21,2,-9,-2,-9,-4,4,30,141,0,410,317
12,5,27,26,5,5,2,5,30,141,0,438,320
1,-4,-30,-19,-12,-4,-2,-1,30,141,0,438,320
33,6,-7,4,2,4,2,10,27,141,0,462,323
-78,-49,-38,-2,-10,-7,-7,-20,27,141,0,493,326
-8,24,18,6,2,-4,1,-9,27,141,0,531,326
-16,2,4,9,1,-1,-10,-1,30,141,0,540,326
-13,-5,24,11,0,2,0,-8,30,141,0,553,323
-77,-26,-74,-21,-7,-5,-5,-8,27,141,0,555,326
-7,13,18,-20,1,1,2,-1,27,141,0,555,323
32,-8,-49,-17,-6,-2,3,0,27,141,0,555,326
-31,1,56,39,-4,-7,-3,-2,27,141,0,548,323
-19,-16,-31,-11,-6,-5,-9,-13,27,141,0,520,323
-5,-8,19,-2,1,10,9,-2,27,141,0,482,314
-1,9,-16,-6,7,3,-1,1,27,141,0,405,302
53,13,-16,5,2,0,1,1,27,141,0,405,302
114,36,47,-1,1,1,1,18,27,141,0,335,280
-127,-62,-72,-10,-16,-14,-15,-27,27,141,0,288,259
32,33,48,30,8,1,3,6,27,141,0,268,238
11,1,12,-8,1,0,-1,1,27,141,0,260,225
9,32,71,10,4,4,7,12,27,138,0,240,192
-9,-27,-106,-26,-5,0,1,-7,30,141,0,224,161
-40,-7,31,4,-1,0,-3,-5,27,141,0,202,125
-12,-3,14,14,-5,-3,1,-2,27,141,0,191,97
3,5,13,-3,1,-2,-9,0,27,141,0,187,79
1,21,46,9,3,5,9,10,27,141,0,185,73
-10,-20,-55,-29,-11,-4,1,-8,27,141,0,182,67
-34,-4,-10,-5,2,-3,-1,-8,27,141,0,180,61
41,3,17,-5,7,6,4,6,27,141,0,180,54
-31,-13,-17,13,-4,-3,1,1,27,141,0,178,54
-21,-14,-57,-29,-8,-6,-6,-10,30,141,0,178,51
31,28,34,2,1,1,2,4,27,141,0,178,51
-52,-35,-40,-1,-6,-9,-8,-15,27,141,0,178,51
46,2,2,-1,4,1,1,6,27,141,0,178,48
19,16,30,5,-3,3,9,14,27,141,0,182,48
-8,-24,-3,5,-6,-3,-4,-12,30,141,0,191,48
-16,11,29,2,4,1,-3,0,27,141,0,211,48
44,11,-18,-19,-3,1,-1,5,27,141,0,222,48
-20,-5,16,16,-2,7,0,-5,30,141,0,255,48
5,-2,19,-7,-4,2,1,1,27,141,0,286,48
53,22,-30,-13,2,1,2,7,27,141,0,321,42
-36,-12,7,-4,-8,-4,-3,-1,27,141,0,363,36
-13,1,-11,-7,1,-2,1,-4,27,141,0,403,33
-39,-13,4,20,2,-2,-3,-2,27,138,0,447,27
-5,-7,-2,-12,-6,1,-2,-5,27,138,0,529,24
8,8,-2,9,0,-4,-4,1,27,141,0,566,24
6,0,-29,-13,3,1,4,1,27,141,0,586,24
5,2,38,24,-3,-1,-1,4,27,141,0,619,24
5,-16,-41,-35,-18,-8,0,-1,30,141,0,657,24
2,6,12,6,0,-9,-8,-8,27,141,0,679,24
-3,-5,-5,14,4,0,6,0,27,141,0,692,24
22,11,-1,-2,-1,1,1,4,27,141,0,703,21
5,1,10,5,-3,4,-3,2,27,141,0,729,21
3,2,-7,-4,3,-1,3,-5,27,141,0,769,24
-23,2,21,20,1,-2,-1,0,27,141,0,835,24
7,0,-10,-9,-4,-5,-4,-2,27,141,0,870,24
-6,-5,33,22,-3,-4,0,-1,27,141,0,903,24
14,11,-33,-8,-2,2,-1,-1,30,141,0,921,27
3,7,5,7,2,-2,-3,2,27,141,0,941,33
-10,-13,-8,-16,-5,2,3,-2,27,141,0,956,39
-1,-3,-6,11,-3,-3,2,-3,27,141,0,959,42
0,1,-2,-1,1,2,-3,-1,27,141,0,972,48
5,4,7,-2,1,0,1,2,27,141,0,978,64
-2,3,17,0,-1,-2,0,-1,27,138,0,983,67
-9,-7,-5,5,-4,-2,0,-2,27,141,0,989,79
-3,2,-5,-10,4,3,2,0,27,141,0,994,82
-6,-7,-24,-6,-3,3,0,-3,27,141,23,1003,100
1,3,21,10,-2,-5,1,-2,30,141,25,1003,109
8,10,7,4,5,1,1,0,27,141,36,1009,122
-7,-14,-9,-1,-4,-5,-4,-1,27,141,43,1014,134
-4,7,15,1,2,1,-3,0,27,141,43,1014,137
-1,-7,-12,-6,-4,0,3,0,27,141,43,1014,137
-4,7,-6,-11,-4,-5,-2,-1,27,141,43,1011,137
3,6,7,12,4,2,2,1,27,141,43,1014,137
-2,-6,2,-11,0,7,1,-2,27,141,43,1014,137
0,-3,-24,-22,-3,-2,-1,-2,27,141,43,1011,134
1,5,13,14,-1,-5,-1,1,27,141,30,1009,122
0,-1,4,-4,1,3,0,2,27,141,25,1007,116
-2,-3,2,10,0,1,-2,-1,27,141,7,987,91
1,8,31,8,-2,-1,-2,0,27,141,0,976,79
-5,-11,-29,1,-5,-1,-2,-3,27,141,0,912,42
0,13,19,2,2,-4,-4,-1,27,141,0,855,33
-9,-23,-17,-10,-6,-5,-3,-4,30,141,0,756,30
3,9,-12,-8,-1,-1,0,2,27,141,0,723,27
-1,-4,-7,-14,-3,-2,-4,0,30,141,0,692,24
2,4,29,26,8,5,7,1,27,141,0,654,21
-5,-4,-19,-17,-2,-2,-1,-3,30,141,0,621,24
-1,1,9,-4,3,1,0,-1,27,141,0,520,24
-2,2,12,7,-10,-11,-7,-2,27,141,0,489,21
-3,-15,-19,-1,-4,-5,-3,-5,27,138,0,423,24
3,13,33,5,5,7,1,2,27,138,0,370,21
-4,-19,-50,-24,-12,2,0,-3,27,141,0,339,21
0,2,-2,7,3,-1,0,-2,27,138,0,291,18
2,6,-12,-1,-4,1,1,0,27,138,0,277,18
-1,1,24,-11,-3,-3,1,0,27,135,0,262,18
0,-1,-23,-17,-1,0,1,-1,27,129,0,242,18
-2,-1,2,6,4,4,2,0,27,126,0,231,18
-3,-2,-2,0,-4,0,0,0,27,110,0,220,18
2,3,-7,-2,1,0,2,0,27,107,0,220,18
-2,-4,0,2,1,0,-4,-3,27,92,0,218,18
0,-1,-1,-5,-11,-7,-2,-1,27,89,0,218,18
-3,-2,-6,-5,5,3,0,-3,27,86,0,213,18
-1,-2,20,8,-2,4,0,0,27,83,0,209,18
-3,-1,-2,0,-2,-7,-3,-2,30,83,0,207,18
-1,8,0,2,1,3,2,-1,27,86,0,205,18
3,3,9,0,-4,-1,-1,1,27,83,0,205,15
1,-1,-14,-5,-4,-5,-4,-1,27,86,0,205,15
-2,-6,-4,4,-5,0,-2,1,27,83,0,207,15
-1,3,4,13,7,8,5,-2,27,83,0,205,15
-1,-5,-8,-10,-4,-1,0,-1,27,86,0,205,15
1,6,-1,3,1,0,1,0,27,83,2,205,15
-3,-8,-16,-7,-5,-4,-5,-1,27,83,23,205,15
1,-7,-6,-4,0,-2,-2,-2,27,83,48,205,15
-2,-3,0,-1,0,-3,-3,-3,27,83,82,209,15
-2,0,-1,0,-3,2,1,-2,27,86,87,209,15
-1,3,-1,-5,0,0,3,2,27,86,92,209,15
-2,-2,0,4,-3,-1,-2,-1,27,83,95,209,15
1,-11,-9,6,2,0,1,1,27,83,103,209,15
-2,-2,-5,-21,-7,-4,-1,-2,27,86,121,211,15
-4,3,0,-7,-4,-5,-2,-3,27,86,144,220,15
4,5,-4,9,5,-2,-2,1,27,86,172,238,15
-2,34,22,9,4,8,1,-2,27,89,185,253,15
-3,-13,-21,-45,0,16,10,0,27,86,206,273,15
4,7,2,11,0,-7,-1,1,27,86,226,293,12
-2,-2,9,10,4,1,-4,-3,30,86,265,326,12
2,16,11,16,-2,-7,0,-1,27,86,280,346,15
-5,-8,19,11,-8,-9,-8,-4,27,83,298,370,15
-3,-4,-20,-27,-4,-2,-3,-2,27,83,322,399,18
0,2,-9,4,4,-1,-3,1,27,86,327,403,15
0,-5,13,0,-7,-1,-3,0,27,86,334,416,15
-6,-4,0,-6,-2,-11,-8,-4,27,86,334,416,15
2,3,6,2,2,2,0,-1,30,83,334,416,15
0,2,-8,-5,-1,0,2,1,27,83,334,416,15
-2,-6,-6,-3,-1,5,3,0,27,86,334,416,15
-1,1,3,3,2,2,0,-1,27,86,332,416,15
-1,-2,3,-3,-6,-6,-1,0,27,83,334,416,15
0,-9,-7,-9,1,-1,-2,-1,27,86,334,416,15
-1,1,2,-1,0,0,1,-1,30,83,334,416,15
0,0,0,4,-1,-3,1,0,27,86,334,416,15
-2,1,1,-1,-2,-1,2,-2,27,83,334,416,15
-1,-1,-5,10,-3,-6,-1,0,27,83,334,416,15
-2,1,-3,-19,1,12,1,-2,27,86,332,412,15
1,4,7,5,3,3,3,2,27,86,316,379,15
-1,-4,-35,-12,-2,-1,-1,1,27,83,278,341,15
0,-11,-5,-6,-1,1,0,-3,27,86,203,293,15
1,-1,-5,-2,-1,5,3,0,27,83,175,286,15
1,-1,-9,2,2,0,-2,1,27,83,74,266,15
0,-3,-6,-3,-1,2,-1,1,30,86,0,246,12
-1,4,10,7,-5,-6,-3,-1,27,86,0,240,15
0,-9,0,3,-3,-3,-3,-1,27,83,0,224,15
-2,-2,-9,-16,-2,0,1,-1,27,86,0,220,15
0,3,7,1,0,0,0,0,27,86,0,209,15
-1,3,1,3,-2,1,3,0,27,83,0,198,15
-2,-4,-8,-7,1,-3,-4,0,27,83,0,187,15
-1,2,-5,1,-1,-1,-2,-2,27,86,0,178,15
-1,-2,12,3,-7,-5,-3,0,27,83,0,169,15
3,4,6,4,1,-2,2,-1,27,83,0,158,12
-1,1,0,2,0,5,4,1,27,83,0,154,15
-2,-3,-14,-10,-4,-3,-1,0,27,83,0,152,15
-2,-6,7,8,-2,-3,-3,-3,30,80,0,147,15
1,0,4,-9,-1,0,-5,-2,27,80,0,145,15
-2,-1,-17,-4,-3,-2,3,-4,27,80,0,145,15
0,-4,6,2,-2,1,0,0,27,83,0,143,12
1,2,-2,3,0,1,-2,-2,27,80,0,143,15
-2,9,6,3,-3,-3,-2,0,27,83,0,141,15
0,0,-9,-6,-1,0,0,-2,30,80,0,138,15
-2,-1,7,14,2,0,-2,-3,27,80,0,138,15
0,-3,-7,-5,-6,-5,-2,-2,27,80,0,138,15
0,1,-4,-6,1,0,1,-1,27,80,0,138,15
2,-5,9,10,1,0,0,-1,27,86,0,138,15
-3,9,3,-8,-4,1,-2,-1,27,92,0,138,15
-2,-3,4,0,0,-3,2,0,27,104,0,138,15
1,-2,4,5,-1,-1,-3,-1,27,110,0,138,15
-3,-2,-15,-3,-3,0,5,-1,25,120,0,138,15
1,1,-2,1,-1,0,1,0,25,126,0,136,15
-2,-2,15,-9,-3,0,-2,0,25,132,0,138,15
-2,-4,-1,9,-1,-1,-1,-2,27,144,0,138,15
-1,3,-2,-7,2,1,-2,-1,25,147,0,138,15
-2,-4,-9,1,-2,1,-2,-1,20,163,0,138,15
0,1,5,-2,-7,-8,-3,-1,20,206,0,138,15
-2,-3,-13,1,2,4,3,-1,17,221,0,138,15
0,0,6,2,2,6,0,1,17,243,0,138,15
-2,-2,2,-1,0,-5,-3,0,15,252,0,138,15
-4,1,9,-7,-3,-3,-1,1,12,271,0,138,15
-3,4,-21,-25,9,8,3,-2,10,289,0,138,15
-3,-9,-12,1,-1,1,-1,1,10,311,0,138,15
2,2,8,3,-5,-5,-2,-1,10,345,0,138,15
0,-3,-2,5,4,-2,-4,-2,10,360,0,138,15
-1,-2,-1,-8,0,6,5,0,7,375,0,138,15
-3,-4,5,2,3,-1,0,-1,5,388,0,138,15
-2,-4,4,-1,-2,1,2,-1,7,391,0,138,15
0,4,-4,-1,1,-2,1,-1,2,406,0,138,15
-3,-5,5,6,-5,-6,-5,-3,2,419,0,138,15
3,-3,-14,-6,1,5,3,0,0,428,0,138,15
-2,-2,-2,3,-3,-6,-3,-2,0,437,0,138,15
1,2,8,0,1,4,0,0,0,446,0,138,15
1,-1,-7,-12,-5,-3,-1,0,2,449,0,138,15
-1,-1,16,2,2,1,0,-2,0,449,0,136,15
-2,1,1,2,-3,1,2,0,2,449,0,138,15
3,1,8,6,-2,0,0,1,0,449,0,138,15
-3,-5,18,12,-1,-1,-4,-4,0,452,0,138,15
-3,-3,-6,5,-2,-1,-3,-2,0,452,0,138,15
0,4,8,10,0,-1,1,-1,0,452,0,138,15
-2,-1,-10,-25,-5,-1,0,0,0,452,0,138,15
0,0,6,3,-1,-2,0,0,0,459,0,138,15
-1,2,-2,7,2,4,0,0,0,459,0,138,15
1,5,2,-9,0,5,0,0,0,480,0,138,15
-1,0,-4,2,0,-4,-1,-2,0,483,0,138,15
2,1,7,9,-1,1,1,1,0,483,0,138,15
-1,-6,-9,0,-1,-3,-6,-3,0,486,0,138,15
2,14,6,-4,3,-2,-1,-2,0,483,0,138,15
0,-1,-6,-2,-1,1,0,-1,0,483,0,138,15
1,3,0,-5,0,1,2,-1,0,486,0,138,15
0,3,11,-8,-5,-4,-4,0,0,486,0,138,15
-4,-8,-15,2,-3,-2,3,0,0,483,0,138,15
-1,3,11,1,3,-2,3,-1,0,486,0,138,15
-5,-13,-9,-3,-4,-1,1,-2,0,486,0,138,15
-3,-6,-13,-14,-4,-3,-5,-2,0,483,0,138,15
0,-4,10,7,0,1,-5,-1,0,480,0,138,15
0,5,-7,-4,-3,1,2,-2,0,480,0,138,15
-1,0,-8,-11,2,-1,0,-1,0,477,0,138,15
0,2,11,7,2,1,1,0,0,465,0,138,15
0,-2,-5,8,0,4,2,-2,0,440,0,136,15
-1,-5,9,-16,0,3,1,1,0,431,0,138,15
-3,0,0,-5,-2,-2,-4,-4,0,409,0,138,15
-2,-5,-10,-4,-4,-1,-1,1,0,400,0,138,15
1,4,-8,4,3,-1,-2,-1,0,391,0,138,15
1,3,6,-4,-3,1,2,2,0,382,0,138,15
-1,-2,-2,7,-2,-3,-4,0,0,363,0,138,15
0,4,1,1,-3,-5,-1,-2,0,348,0,138,15
-5,-9,-20,-17,-7,-2,-1,-1,0,335,0,138,15
-1,1,3,3,0,0,-2,1,0,323,0,138,15
0,0,9,3,-1,1,0,-1,0,308,0,138,15
-1,-2,-7,0,-2,-3,-1,-1,0,286,0,138,15
1,-6,-4,-10,0,-4,-7,-1,0,271,0,138,15
0,3,12,6,1,0,2,0,0,249,0,138,15
0,3,-8,0,3,0,-2,-1,0,249,0,138,15
-3,-6,-16,-7,-9,-5,2,-2,0,243,0,138,15
0,-2,-3,-7,-6,-2,1,-1,0,215,0,138,15
-1,0,3,6,-3,-7,-6,1,0,197,0,138,15
-1,-9,-1,8,1,4,2,-3,0,178,0,138,15
-4,-1,-31,-9,3,8,5,-1,0,157,0,138,15
1,-5,15,3,1,-1,2,1,0,154,0,138,15
-1,10,2,-7,-3,-4,-3,-3,0,141,0,138,15
-1,-6,-8,6,-4,-5,-4,-2,0,138,0,138,15
-2,-3,4,-7,-5,-2,-5,-3,0,135,0,138,15
0,-4,-14,-2,2,-1,-3,-1,0,135,0,138,15
0,3,-9,4,5,8,4,1,0,138,0,138,15
-1,-1,-7,-7,-4,-2,-2,1,0,138,0,138,15
2,4,14,11,-1,-1,-3,-1,0,138,0,138,15
-1,-1,-21,-19,-3,-5,-1,-2,0,138,0,138,15
-2,1,16,0,0,3,1,-1,2,135,0,138,15
-2,2,2,9,1,0,2,-3,0,135,0,136,15
-4,-9,-12,-4,0,-1,-1,-1,0,138,0,138,15
1,9,6,3,3,3,3,0,0,135,0,138,15
-3,-10,-7,-2,-4,-2,-1,-3,0,138,0,138,15
1,-1,-3,2,2,-4,-5,-1,0,138,0,138,15
1,1,4,6,1,4,3,0,0,138,0,138,15
-6,2,7,-12,0,1,-2,-1,0,138,0,138,15
-1,2,17,1,-1,-4,-3,-3,0,141,0,138,15
-2,-2,-3,1,2,2,0,-2,0,157,0,138,15
1,-1,-3,12,5,3,2,2,0,187,0,138,15
-3,-8,-3,7,-3,-5,-4,-2,0,249,0,138,15
-2,-3,-11,-16,-2,1,-3,-2,0,320,0,138,15
0,2,3,4,-1,2,4,1,0,406,0,138,15
-1,-1,-2,0,0,-2,-5,-2,0,480,0,138,15
0,0,6,3,-6,-3,-2,-2,0,548,0,138,15
-1,-2,-7,-4,-2,-6,-3,-1,0,634,0,138,15
2,1,2,-4,2,-1,0,1,0,687,0,138,15
-2,-5,-20,-21,-6,1,6,-2,0,742,0,138,15
-1,0,5,3,-3,-7,1,0,0,798,0,138,15
-1,-1,-7,-12,0,-1,-3,-2,0,862,0,138,15
0,-1,3,11,1,2,4,1,0,893,0,138,15
1,3,2,1,0,-1,-2,-1,0,936,0,138,15
-1,-1,-8,-4,-2,-2,0,0,0,949,0,138,15
0,3,8,4,-5,-3,-1,-1,0,949,0,138,15
-2,-2,-9,-6,-2,1,-2,-2,2,949,0,141,15
0,2,9,-2,1,-1,-1,-1,0,949,0,141,15
2,1,11,0,0,5,5,0,2,949,0,143,15
-4,-11,-8,5,0,-3,-2,0,2,952,0,143,15
-1,-1,-1,-18,0,2,-2,1,0,970,0,143,15
1,2,9,16,-3,-2,0,1,0,995,0,143,15
-2,1,2,-9,-3,-3,0,-2,0,998,0,143,15
0,1,12,9,1,1,4,-1,0,998,0,143,15
-2,-3,-19,-5,-3,-5,-5,-1,0,998,0,143,15
-2,-2,-9,-7,-3,0,0,-1,2,1001,0,143,15
0,-1,0,2,4,1,0,-1,2,1001,0,143,15
0,1,-1,0,1,2,0,0,0,1001,0,143,15
0,-3,-2,4,-3,-6,-6,-2,2,1001,0,143,15
-2,-3,-3,-12,1,0,-4,-2,2,1001,0,143,15
1,2,5,0,-4,-3,3,-2,2,1001,0,145,15
-1,-5,0,1,0,0,-3,-2,2,998,0,143,15
1,3,2,2,-1,1,2,1,2,998,0,143,15
-3,-8,-11,-7,0,2,-4,-1,2,995,0,143,15
-2,2,-11,-4,-7,-3,1,-1,2,998,0,143,15
-2,0,-10,0,1,1,0,-2,0,989,0,143,15
0,-4,-9,-2,-1,-4,-6,-1,0,989,0,143,15
-4,1,12,-2,1,0,2,-3,2,964,0,143,15
1,1,-5,-1,-1,-1,-1,1,2,868,0,143,15
0,-3,-4,3,-2,-5,-1,0,2,856,0,143,15
0,0,1,-2,-2,4,1,-1,2,847,0,143,12
1,-2,1,0,-5,-2,-4,0,2,841,0,143,15
-2,-1,-5,-4,-1,-1,-1,0,2,816,0,143,12
-1,1,6,-1,3,1,1,-1,0,794,0,143,15
0,1,7,15,1,-3,-3,-1,2,785,0,143,15
0,2,0,-9,-3,-1,-3,0,0,773,0,143,15
0,6,4,-4,-2,-4,-2,-1,2,767,0,143,15
1,0,10,16,0,5,0,-1,2,754,0,143,12
0,-2,-5,-2,1,5,7,-1,0,748,0,145,12
-3,2,1,-4,0,-3,0,-1,2,717,0,143,12
-1,1,10,6,-2,-5,-3,2,2,699,0,143,15
-1,0,9,-12,-2,3,2,-1,2,631,0,143,12
-3,-6,-22,-2,-5,-4,-3,0,2,551,0,143,15
2,5,-1,-3,3,5,4,2,0,456,0,143,15
-6,-5,1,-3,-7,0,5,-1,2,443,0,143,15
2,4,4,9,3,-4,-4,1,0,415,0,143,15
0,5,-3,-8,2,0,-3,-4,0,415,0,143,15
-2,-4,0,2,-3,-2,-1,0,2,409,0,141,15
0,0,6,9,-2,-2,-2,-2,2,406,0,143,15
-3,-4,-15,-6,0,3,-1,-2,2,406,0,141,12
1,3,5,-1,2,1,0,0,2,406,0,141,15
1,-6,-6,2,-2,-4,-4,1,0,400,0,143,12
-3,-1,4,-9,-8,-7,-3,0,2,403,0,143,15
0,-1,-3,2,-1,-5,-3,0,2,400,0,141,15
1,-7,3,-6,-3,3,2,0,2,400,0,143,15
-2,6,-20,-4,2,1,1,-1,0,400,0,141,12
-1,3,0,0,0,1,0,-1,0,400,0,143,15
0,-2,-11,-13,-7,-7,-4,-3,0,403,0,143,15
-1,-2,-5,3,3,4,1,-2,0,446,0,141,12
-1,3,8,1,-2,1,-3,-2,0,486,0,141,12
0,-1,0,-12,-4,-3,-5,1,0,554,0,141,15
-2,-1,-2,7,0,2,-1,-1,0,594,0,141,15
-2,-6,-6,-6,2,-1,-4,-3,0,674,0,141,15
2,4,2,-11,-3,-4,-3,1,0,761,0,141,12
0,2,-3,15,2,5,3,1,0,905,0,141,15
-1,0,2,1,-2,-3,2,1,0,921,0,143,15
-2,-5,-20,-1,-4,-3,-4,-1,0,976,0,141,15
-4,-6,23,9,-1,0,0,-3,0,1013,0,141,15
2,6,11,-8,-3,-2,-1,1,2,1023,0,141,15
-3,-3,-16,-15,-5,-5,-1,-3,2,1023,0,141,15
-1,-2,2,4,1,0,-1,0,0,1023,0,141,15
0,1,-2,-2,4,5,0,-1,2,1023,0,141,15
2,-1,0,4,1,5,2,1,2,1023,0,141,15
1,9,7,8,1,3,1,1,2,1023,0,143,15
-3,-6,13,-10,-8,-4,-1,-3,2,1023,0,143,12
-1,-3,-7,-3,-5,-4,-1,0,2,1023,0,143,15
0,-3,-13,1,-1,-4,-1,-1,0,1023,0,143,15
0,-7,4,1,1,-2,-1,-1,0,1023,0,143,12
1,5,11,5,-2,-3,1,1,2,1023,0,147,12
0,-3,-21,-26,-1,0,-2,-1,2,1023,0,152,12
-3,-7,-10,2,1,3,5,-1,2,1023,0,154,12
-1,-1,-1,11,-5,-3,-1,1,2,1023,0,154,12
-1,-6,2,-9,4,0,-2,-1,0,1023,0,154,12
2,3,0,7,1,0,1,-1,2,1020,0,154,15
-2,-3,-29,-7,-4,-2,-2,-1,2,1023,0,154,12
-2,12,10,0,-7,-1,2,2,2,1023,0,154,12
-1,-10,-33,-20,-1,-4,-5,-2,2,1023,0,154,15
0,11,40,15,-4,-5,-4,-2,2,1017,0,154,12
-2,-3,-3,4,7,5,1,0,0,989,0,152,12
-3,-2,-9,-5,1,3,-1,0,2,884,0,152,12
0,8,35,14,-3,-4,-2,-1,2,806,0,154,12
-2,-12,-47,-26,-5,-3,-1,0,2,756,0,154,12
-2,-5,10,0,-1,-3,-2,-1,2,733,0,154,12
-1,0,-3,6,0,-4,-2,-1,2,711,0,154,12
0,8,6,6,0,1,0,0,0,658,0,154,15
0,-10,1,-1,-2,-1,0,-2,0,633,0,154,15
-1,-3,-5,-10,-11,-7,-6,-2,0,608,0,154,15
0,4,4,5,0,1,1,0,0,592,0,152,12
-3,-4,-4,-3,1,3,4,-3,0,572,0,152,15
0,2,-5,6,-1,-1,-2,2,0,569,0,154,12
-1,1,12,-1,-5,-7,-1,-1,0,550,0,154,15
-3,2,12,8,0,0,0,-2,0,544,0,154,15
-1,-6,-13,-2,1,1,2,2,0,539,0,154,12
0,6,12,4,-6,-2,0,-4,0,539,0,152,15
0,-1,12,-13,-6,-3,-1,-1,0,536,0,152,15
-1,4,3,3,0,0,-3,-3,0,528,0,154,15
1,2,14,22,3,4,4,0,0,511,0,152,12
-4,-10,-27,-33,-3,-3,-1,-3,0,483,0,154,15
1,9,10,9,-6,-2,-2,-1,0,461,0,154,15
-2,-9,-13,-4,1,-3,-4,-2,0,455,0,152,15
-4,-1,3,4,2,1,-2,-2,0,430,0,152,15
1,0,9,10,-1,0,-1,-1,0,411,0,152,12
1,4,-2,3,-2,2,0,-2,12,389,0,152,15
-1,-8,0,-5,-4,0,-1,0,21,378,0,152,15
-3,-7,0,-3,1,-1,-4,0,41,358,0,152,15
2,11,6,10,-2,1,0,1,56,341,0,152,15
1,0,2,-15,1,1,3,1,93,314,0,152,15
-3,-2,0,1,-4,-5,-5,-1,134,291,0,149,15
0,-4,0,8,-1,-2,-2,-1,173,272,0,149,15
-3,-5,-12,-16,0,0,2,-1,173,272,0,149,15
1,2,-14,9,0,0,-1,1,224,250,0,147,15
-1,1,18,-2,-4,-2,-1,-1,242,241,0,147,15
-2,-7,-12,10,-1,-3,3,1,298,219,0,149,15
-3,-1,8,-10,1,1,-1,0,376,205,0,147,15
-5,-29,-41,-12,-9,-7,-5,-2,400,202,0,149,12
-1,1,18,15,0,2,2,-2,465,191,0,147,15
-1,-4,-3,-11,0,2,6,-2,486,186,0,149,15
1,-1,-4,6,0,-2,0,7,549,175,0,149,15
1,12,25,4,1,-5,-5,-3,590,166,0,149,15
2,-2,-11,-1,1,2,-1,1,631,161,0,149,15
-1,5,4,-5,-2,-3,-3,-1,702,147,0,147,15
-3,-11,-11,0,-2,-3,-1,-2,718,144,0,149,15
-2,-2,14,-1,3,4,0,-3,752,141,0,147,15
1,9,-11,-2,0,-3,-1,-2,782,133,0,147,15
1,7,4,1,-3,-3,-1,-1,800,130,0,149,15
-2,-2,10,7,0,-1,1,-3,841,119,0,149,15
-2,-3,-4,-2,-1,0,0,0,854,122,0,149,15
-1,4,5,-9,1,0,-3,-2,860,116,0,149,15
0,-1,-1,0,-2,1,0,0,875,111,0,149,15
-3,-5,-38,-3,-3,0,2,-1,901,105,0,149,15
0,-5,8,-2,0,-1,-4,1,923,102,0,149,15
-2,-11,-5,-4,-3,-2,-1,-3,940,102,0,149,15
0,10,-8,0,3,0,-2,1,947,102,0,149,15
-3,0,28,4,-3,-3,-2,-3,951,102,0,149,15
-3,-3,13,11,-2,-2,-6,-2,955,102,0,149,15
0,2,-15,-4,-2,-3,-4,0,955,102,0,149,15
0,-2,-3,-6,4,2,4,-4,955,102,0,147,15
1,2,7,-4,-4,-1,0,2,955,100,0,149,15
-1,-4,-19,-10,-1,1,3,1,955,102,0,149,15
-1,1,44,15,2,0,-1,1,953,102,0,149,15
-4,-4,-19,-1,-1,0,-1,-1,949,102,0,149,15
2,5,-9,-3,0,-2,-2,1,912,102,0,149,15
0,-3,22,4,2,-1,0,1,735,108,0,147,15
-1,11,-10,0,-2,-2,0,-2,659,113,0,147,15
-2,1,9,-14,-1,2,2,-3,622,113,0,145,15
-1,-6,-10,4,1,3,4,1,467,116,0,145,15
-3,6,-6,1,-4,-1,-1,-2,333,116,0,145,15
2,0,8,-2,3,-2,-3,0,294,116,0,145,15
-1,-4,-22,-4,0,5,6,2,253,116,0,145,15
-1,-3,-16,-5,-1,1,-2,1,216,122,0,145,15
3,4,5,10,3,2,3,1,129,130,0,145,15
-3,4,28,11,-2,-2,0,-1,56,136,0,145,15
-1,-7,-4,0,-8,-5,-2,-2,41,136,0,145,15
0,2,-19,-4,0,-4,-1,0,8,141,0,145,15
-2,4,-7,-15,-1,-4,-1,-3,0,141,0,145,12
-1,-11,23,14,-2,-6,-4,-2,0,144,0,145,12
-1,-1,2,9,0,-2,-3,0,0,147,0,145,15
0,2,-7,-17,-2,-2,-7,-3,0,147,0,145,15
0,3,23,15,-2,-5,-1,-2,0,150,0,145,15
1,-8,-29,-10,-3,-3,-1,-1,0,150,0,145,15
-3,2,22,3,-2,-3,3,-3,0,150,0,145,15
-5,-16,-33,-12,4,6,3,0,0,150,0,145,15
1,-2,-7,-1,1,-4,-5,-1,0,150,0,147,15
1,8,25,6,0,-1,1,-3,0,150,0,145,15
4,1,8,-3,1,0,0,4,0,147,0,145,15
-1,-1,-1,-1,-1,1,1,-3,0,144,0,145,15
-3,4,21,5,-1,-5,-8,-12,12,141,0,145,15
5,-3,-13,-11,-3,1,3,12,36,138,0,145,15
-2,0,17,-6,-3,-1,0,-1,80,136,0,145,15
0,6,31,17,2,1,1,0,101,136,0,145,15
2,1,-34,-6,-3,-2,-2,4,151,127,0,145,15
-7,-10,-25,-8,-3,-2,-1,-7,160,125,0,145,12
-1,7,9,6,2,6,3,1,173,122,0,145,15
-1,0,-5,-8,-1,0,-1,-3,201,119,0,145,15
3,2,-3,-7,1,0,-4,0,248,113,0,145,15
0,5,35,8,0,1,2,0,289,108,0,145,15
-6,-15,-50,-10,0,0,4,-4,315,102,0,145,15
-1,1,-4,-1,-6,-4,0,-1,354,97,0,145,15
0,-1,20,5,1,2,-4,1,374,91,0,145,15
-4,-4,-12,-3,-5,-4,-5,-15,404,86,0,145,15
2,3,-5,-13,0,5,8,8,449,80,0,145,15
1,3,5,7,4,2,2,1,521,72,0,147,12
-6,-2,10,11,-6,-2,-1,2,573,58,0,145,15
-1,-1,-7,2,1,-1,1,-4,622,55,0,145,15
2,-3,42,9,-1,0,-3,-3,672,52,0,145,15
-5,-9,-51,-17,-4,-4,-3,-3,733,47,0,145,15
-1,-9,-1,7,-3,-1,-3,-2,789,44,0,145,15
0,4,-2,0,-3,-3,0,-3,830,41,0,145,15
0,1,-2,-4,1,-2,-2,5,886,36,0,145,15
1,0,22,12,0,2,-1,-1,934,33,0,145,15
4,2,8,-1,5,6,6,6,964,36,0,145,18
-3,-3,-25,-13,3,1,0,-4,979,36,0,147,15
-2,-14,-50,-17,-3,-3,-4,0,994,33,0,145,15
-3,1,18,-3,-7,-5,-4,-2,1005,33,0,145,15
0,1,16,5,0,-2,0,-2,1007,36,0,145,18
-3,-7,-43,-10,-2,1,2,-4,1007,36,0,147,18
5,13,58,16,4,3,8,10,1007,36,0,147,15
-2,-9,-62,-17,-6,-6,0,-1,1007,36,0,147,18
-3,-8,-20,-11,-3,-4,-2,-6,1007,36,0,145,15
7,10,29,17,4,6,-1,4,1005,41,0,145,15
3,2,7,2,8,6,2,7,975,47,0,147,15
-1,-1,10,6,-4,-7,0,2,953,52,0,145,15
-2,-9,-32,-11,-3,-1,1,-2,858,61,0,145,15
3,4,15,6,1,3,4,0,724,72,0,145,15
-2,-6,2,6,-2,-5,-7,-2,603,80,0,145,15
-3,2,-2,-12,-5,-2,-3,-3,570,83,0,145,15
-2,-4,2,-1,2,4,3,0,482,86,0,145,15
-2,4,13,8,-1,1,3,-2,452,88,0,147,15
-2,-6,-12,-9,-4,2,0,-9,372,97,0,145,15
-1,-1,10,10,-3,-3,6,8,320,100,0,145,15
2,2,-21,-12,-8,-5,-4,0,287,102,0,145,15
3,2,-5,-6,3,-1,-2,2,216,108,0,145,15
-1,15,16,9,1,1,2,-2,190,108,0,145,15
-2,-13,-44,-19,-1,-3,-2,4,153,116,0,145,15
-2,0,16,3,-1,-1,1,-2,123,122,0,145,15
0,-2,8,1,-3,-3,-3,-3,99,125,0,145,15
0,0,0,7,-4,2,0,3,93,125,0,145,15
1,5,26,3,-3,-4,-6,1,84,130,0,145,15
-4,-2,2,-8,3,1,-2,-3,64,133,0,145,15
-2,-4,8,-2,-5,-2,-1,-5,60,136,0,145,15
-2,1,15,8,-2,-4,-2,-2,21,152,0,145,15
-2,-4,-12,-4,2,4,1,-2,10,172,0,145,15
-1,0,-2,-4,-2,1,9,-2,0,197,0,145,15
-1,3,15,11,3,-4,-3,-1,0,208,0,145,15
0,-3,-10,-2,-4,-2,0,0,0,227,0,145,15
1,-3,7,-2,-4,0,-2,1,0,258,0,145,15
-1,-1,-4,3,0,-4,-6,-4,0,330,0,145,15
-3,1,-6,-3,-7,0,-1,0,0,430,0,145,15
0,-4,-3,-4,6,1,3,-3,0,469,0,145,15
-1,3,19,10,1,1,0,0,0,500,0,145,15
0,-1,-24,-4,-4,-1,-2,-2,0,564,0,145,15
-1,-2,-16,-8,1,-1,0,-2,0,575,0,145,15
1,1,21,-1,3,5,-1,-1,0,603,0,145,15
-4,-2,-9,-1,-1,-1,0,-2,0,611,0,145,15
-1,3,9,2,-5,-3,0,-1,0,619,0,145,15
0,-2,-7,4,-3,-5,-4,-1,0,619,0,145,15
-1,2,-11,-2,-2,-4,-2,-1,0,619,0,145,15
2,5,15,6,3,5,1,1,0,619,0,145,15
-2,-9,-15,-10,0,-4,-2,-2,0,619,0,145,15
0,7,10,10,-6,-2,-3,-1,0,631,0,145,15
-1,-4,-18,-6,-6,-5,-2,-1,0,658,0,147,15
2,1,15,8,2,2,-1,1,0,669,0,145,15
-4,-5,-25,-7,-7,-7,-3,-1,0,689,0,147,15
1,0,14,9,6,1,1,0,0,694,0,145,15
-1,-1,4,-16,-3,3,0,1,0,697,0,145,15
0,2,5,15,1,-3,-1,1,0,697,0,147,15
-1,-2,6,-5,-7,0,-2,0,0,697,0,147,15
-1,-3,-27,-10,1,2,1,-1,0,694,0,147,15
2,0,28,24,-2,-6,-4,0,0,697,0,147,15
-2,-8,-19,-36,-3,3,-1,-2,0,697,0,147,15
0,-1,-1,9,1,3,2,0,0,694,0,149,15
2,-2,-1,0,-1,-1,-2,1,0,697,0,147,12
-1,-2,-9,11,0,-1,0,-3,0,694,0,147,15
0,0,8,-14,0,6,-2,0,0,697,0,147,12
-1,3,-14,-6,-1,-1,-1,-2,0,694,0,147,15
-1,-1,6,-1,0,-5,0,-2,0,694,0,147,15
-1,0,11,-6,-1,6,6,-1,0,697,0,147,15
-2,-1,-9,-2,-1,-2,-1,0,0,694,0,147,15
0,6,2,0,-2,-2,-4,0,0,694,0,149,15
-2,-2,7,-5,-1,2,3,-2,0,686,0,147,15
0,1,18,2,0,-1,-1,-1,0,681,0,147,15
0,1,-11,-3,1,-4,0,0,0,667,0,147,15
0,-1,8,2,1,-2,-4,-1,0,628,0,147,15
-4,-8,-10,2,-3,-2,-1,-1,0,608,0,147,15
1,3,10,2,0,0,-1,-1,0,583,0,147,15
-1,-2,-11,-8,-2,-2,-1,2,0,564,0,147,15
-1,-7,-3,1,-3,-1,-1,-2,0,539,0,147,15
1,8,12,3,5,0,-2,1,0,469,0,147,15
-2,4,9,6,-1,1,0,0,0,447,0,147,15
-1,-3,-20,-13,-5,0,3,-1,0,428,0,147,15
-3,-7,-7,9,-2,-5,-2,0,0,414,0,149,15
1,3,22,-5,3,2,1,1,0,330,0,147,15
0,-1,-23,-11,-5,-3,-4,-1,0,300,0,147,15
-1,-2,14,11,-1,-2,-3,-2,0,255,0,147,15
0,-4,-2,1,-2,-2,0,-2,0,225,0,147,15
-2,2,6,1,-3,1,-2,-2,0,216,0,147,15
-1,-2,4,5,1,1,0,1,0,189,0,147,15
-1,0,-14,-4,3,2,0,0,0,155,0,149,15
-1,1,-7,-3,0,1,2,1,0,136,0,147,15
1,0,7,9,0,-3,-6,-1,0,113,0,147,15
-3,-4,-9,-20,-4,-2,2,0,0,105,0,147,15
-2,1,4,2,-6,-9,-3,-1,0,88,0,147,15
1,-1,2,0,2,-2,-2,-2,0,75,0,147,15
-2,-2,-37,-16,-5,-4,-2,-1,0,66,0,147,15
-2,-1,13,-1,-3,-4,-2,-4,0,63,0,147,15
0,2,-1,-5,-1,0,3,1,0,63,0,147,15
1,1,8,7,-2,-3,-3,0,0,63,0,147,15
0,-3,-7,1,-1,1,-1,0,0,66,0,147,15
-1,-1,-1,0,-1,0,-1,0,0,83,0,147,15
-2,-1,-11,0,-3,-2,0,-1,0,113,0,147,15
0,1,26,8,-1,-1,0,1,0,147,0,147,15
-2,-4,-32,-15,-3,0,0,1,0,177,0,147,15
-1,0,3,4,-3,-1,-1,0,0,194,0,147,15
1,-1,12,12,1,-1,-1,-1,0,219,0,147,15
0,2,11,-4,-4,0,-1,0,0,258,0,147,15
1,0,-21,-5,-5,-4,-3,-1,0,266,0,147,15
-3,-9,-18,8,6,3,0,-3,0,297,0,147,15
-1,3,13,-1,-5,-2,-2,1,0,325,0,147,15
0,0,7,-2,3,2,-2,-1,0,344,0,147,15
3,3,8,3,1,-3,1,1,0,375,0,147,15
-2,-4,-6,-7,-6,-2,-3,0,0,408,0,147,15
1,0,27,10,1,0,-1,-1,0,461,0,147,15
-2,0,-3,-15,-2,1,0,-2,0,511,0,147,12
2,12,5,0,3,5,2,1,0,528,0,147,15
1,-1,-4,-2,2,1,-1,-1,0,564,0,147,15
-1,-7,-6,2,-6,-2,-1,-1,0,606,0,147,15
2,6,16,10,4,-1,0,-1,0,647,0,147,15
-2,-5,-16,-5,-3,-2,-1,-1,0,647,0,147,15
-3,-2,13,0,-2,-3,0,-1,0,672,0,147,15
-2,-5,-7,1,-1,1,-2,0,0,689,0,147,15
-3,2,-2,-2,-5,-5,0,-1,0,745,0,147,15
0,-4,5,2,2,6,-1,-2,0,753,0,147,15
0,-2,-4,-3,-3,-2,-1,0,0,761,0,147,15
-2,-4,-16,-6,-1,-5,-2,-2,0,772,0,147,15
2,5,17,11,-2,0,-2,0,0,783,0,147,15
-1,-15,-28,-19,-6,-5,-1,-2,0,795,0,147,15
-1,3,12,7,1,-1,0,1,0,795,0,147,15
-2,-1,7,7,-3,-3,0,-3,0,795,0,147,15
-1,5,0,-4,3,-2,-1,-1,0,795,12,152,15
1,1,-2,0,1,3,5,2,0,795,15,156,12
-1,0,1,4,-3,-2,-1,0,0,795,20,180,15
-2,-5,5,-12,-2,-2,-1,1,0,792,18,200,15
-2,-4,-5,-7,0,-3,-2,-2,0,795,18,220,15
0,2,3,9,-1,4,2,0,0,792,18,235,15
-1,0,21,17,-1,-5,-2,-1,0,789,18,242,15
-4,-5,-24,-23,1,3,0,-1,0,783,18,255,15
-1,-4,-27,-3,-5,0,-3,-1,0,778,18,280,18
-1,3,8,-4,-2,1,1,-1,0,775,18,284,18
1,-1,9,3,-2,-2,1,-1,0,772,15,293,18
-3,0,1,-2,-2,-4,-2,-2,0,770,15,302,18
0,2,14,6,-5,-4,-3,-1,0,758,18,306,21
0,-2,-5,-6,1,-2,-1,-1,0,736,15,310,24
0,-7,-24,-5,-3,0,0,-1,0,717,18,308,21
-1,7,25,0,-2,-4,-3,-1,0,667,15,308,21
-2,-9,-48,-12,-3,1,0,-1,0,592,0,310,21
0,-2,4,-2,-2,2,-1,0,0,567,0,308,24
-1,2,2,-4,8,4,-1,0,0,455,0,295,24
1,1,1,5,-5,-2,0,0,0,408,0,273,21
-3,-2,7,-4,-9,-8,-4,-3,0,358,0,249,24
-1,2,-5,12,-3,-5,-1,-3,0,308,0,224,21
-1,-1,-4,-9,3,2,2,0,0,264,0,207,21
0,-2,-1,-8,1,0,1,0,0,216,0,185,21
0,-1,15,7,-3,-3,-2,-1,0,191,0,169,21
-4,-6,-1,-1,-4,-3,-4,-3,0,158,0,156,21
1,2,-1,-4,-3,0,1,1,0,150,0,152,21
-1,3,6,2,0,-2,-3,-2,0,144,0,149,21
0,1,2,0,-3,-1,1,-2,0,138,0,149,21
0,-1,5,2,3,0,-3,-1,0,138,0,149,21
-1,-4,0,-7,0,-1,2,1,0,138,0,152,24
-1,4,16,18,-3,-4,-3,0,0,138,0,154,24
1,1,-11,-3,0,0,0,-1,0,152,0,167,21
0,-1,11,10,3,4,2,0,23,183,0,189,21
-2,-9,-25,-4,-4,-2,-2,-2,95,261,0,251,27
0,4,12,0,0,1,-1,1,131,297,0,277,36
-1,-2,-6,3,0,0,1,0,149,325,0,293,45
-1,-2,-2,-6,-2,-2,-4,0,170,350,0,308,54
1,9,20,5,3,-1,2,-2,205,397,0,335,82
0,-1,-18,1,0,3,-1,0,224,428,0,354,103
-3,-2,13,4,-1,-4,-2,-1,246,453,7,381,128
0,-2,-30,-22,1,3,-1,-1,263,475,43,412,149
2,7,30,11,-1,-1,-1,0,309,514,115,467,201
-5,-11,-26,-15,-10,-6,-2,-5,328,533,157,502,235
-1,-2,8,4,5,-2,-1,-1,361,555,208,544,277
1,9,23,8,-3,-3,-3,-2,395,575,260,586,323
-1,-4,-29,-14,-3,0,-1,1,406,594,280,599,338
0,-2,10,6,-6,-2,1,0,419,606,322,634,363
2,1,-4,1,3,6,-1,1,430,617,345,643,384
-2,-3,-4,-5,-4,1,0,-1,449,625,383,674,418
0,1,12,10,2,-2,-2,-1,469,631,417,696,445
0,3,-15,-5,1,0,0,0,480,650,440,712,464
-3,-3,-6,-3,3,4,0,-2,486,653,456,720,479
-3,-1,12,11,-2,-1,0,-1,501,681,510,751,516
-1,-4,-7,-5,1,1,1,-1,516,703,543,773,540
-1,2,4,-8,-2,-5,-2,1,523,725,577,795,564
-1,1,0,1,-4,-2,-1,-1,532,756,631,824,604
1,1,4,6,1,3,1,1,542,781,662,851,629
1,2,0,-2,0,-2,-1,0,553,806,698,873,653
-5,-13,-11,-2,-1,-1,-3,-3,558,817,713,886,662
0,-1,-8,-12,-2,-2,0,2,573,853,762,917,696
-1,3,6,4,4,3,1,-2,577,861,773,925,702
-2,-3,-1,-8,-3,-6,-2,-1,588,881,803,945,720
-1,2,10,1,2,-1,0,-3,603,900,824,961,732
-1,-2,6,1,-2,-1,-1,-2,631,936,860,985,766
-1,-1,-14,-4,4,2,2,0,651,964,894,1003,784
0,-4,7,3,-3,2,-1,-2,668,978,912,1014,797
0,-3,-36,-6,-5,-7,-2,0,676,986,925,1018,806
-1,3,15,-5,-1,-3,-1,-1,694,995,937,1023,815
1,1,10,9,-2,-3,-2,-2,709,1011,950,1023,827
-2,3,11,0,3,1,-1,-2,737,1023,971,1023,842
-2,-7,-16,-3,-2,-1,0,-2,752,1023,979,1023,851
-2,-1,-25,-4,0,1,1,0,765,1023,981,1023,861
-2,-2,14,-6,-2,2,1,1,791,1023,986,1023,879
0,-4,-24,3,-3,-4,-1,-1,795,1020,986,1023,882
-1,1,13,-3,1,-2,-3,-1,793,1023,986,1023,882
-2,1,3,8,-2,-5,-4,-3,793,1023,986,1023,882
-2,-3,-9,-7,6,4,2,-1,793,1023,986,1023,882
0,-2,9,5,3,3,1,2,769,1006,971,1016,879
-1,1,-6,4,-1,1,-1,-2,752,970,948,1006,873
1,-1,11,-4,-6,-2,0,-1,728,913,912,1000,855
-1,2,-11,-3,-6,-6,-2,-1,715,880,891,986,842
-2,5,8,2,-3,-1,-1,0,674,750,773,897,781
1,3,-16,-14,-6,-3,0,0,627,599,595,744,687
-3,-13,-5,4,0,-5,0,-2,586,456,350,551,574
-2,8,15,4,-3,-2,-1,-3,564,349,177,424,482
0,-2,-9,-3,2,4,1,0,523,214,0,264,332
1,3,-19,-9,5,2,2,0,488,143,0,188,210
1,11,27,12,-2,-4,-2,0,454,99,0,145,128
-2,-10,-24,-20,-4,-2,-2,-2,415,74,0,114,58
-2,-1,12,2,-1,-2,-1,-1,389,63,0,98,39
0,-2,16,6,-5,-5,-4,-1,367,60,0,94,33
0,-3,-9,-4,-3,0,2,-1,350,60,0,92,33
-3,-6,-2,-3,-3,-3,-3,-2,328,60,0,90,33
-2,-6,-35,-21,-3,-4,-2,-3,300,60,0,92,33
-2,4,14,5,0,-4,-1,-1,298,63,0,96,33
3,-3,-14,3,-4,-2,0,-1,296,60,0,98,33
-4,-3,17,12,-2,-3,-4,-1,298,77,0,143,33
-3,-6,-34,-10,-3,3,-1,-2,298,118,0,192,36
0,2,7,-2,-3,-5,-1,-1,298,178,0,293,42
0,0,-12,-2,2,1,-2,0,298,225,0,364,67
1,6,34,10,7,2,1,3,298,244,0,389,79
-1,-1,-13,-4,-6,-6,-3,0,300,261,0,412,97
-3,-7,-15,-14,-2,-1,-1,0,324,310,0,471,155
-3,-2,18,11,0,1,1,0,352,354,43,533,213
-3,-3,-17,0,0,2,-2,1,404,409,170,610,299
0,0,12,4,-1,-2,0,-1,419,429,193,625,323
2,9,6,2,0,0,-1,-1,434,440,213,639,342
-1,-6,-10,-9,0,2,0,0,488,484,314,694,409
-1,0,-4,5,3,1,1,1,514,511,365,725,448
-1,0,11,4,0,-2,-2,-1,523,533,394,744,470
0,-3,-15,-4,-6,-3,-2,-2,532,544,420,754,488
0,-5,2,-11,-1,-1,0,-1,564,594,489,785,537
-2,1,-3,9,3,2,0,-1,573,613,510,793,546
0,0,-11,-5,6,0,2,0,590,646,548,820,577
-1,-1,-9,-3,-3,0,2,0,616,695,608,848,610
1,-3,15,11,-1,-1,-2,-1,633,726,639,869,635
1,-4,12,-2,0,-4,-1,0,653,753,675,885,656
-3,-3,-13,-5,0,0,0,-3,674,792,703,904,674
-1,0,3,-1,0,-3,-1,1,679,800,718,912,687
-2,-2,17,-3,-1,-2,0,-1,689,811,731,920,699
0,-4,-25,-12,-3,-1,0,0,720,863,778,945,729
-1,1,33,14,9,4,1,-1,746,896,798,963,751
0,1,-17,-4,-1,3,1,1,756,918,816,975,766
1,3,1,1,-4,-4,-3,-2,761,935,824,979,772
-1,-3,18,-2,1,1,-1,-2,772,959,845,998,784
-1,0,-7,-1,-6,-5,-2,-2,778,968,852,1000,790
1,3,9,-13,-1,-4,-1,-2,789,979,876,1008,797
-2,-7,-29,-2,-1,4,-2,-2,795,987,889,1010,806
1,1,15,3,1,1,-1,-2,800,987,894,1012,809
-2,-3,-3,-1,1,0,-1,0,808,990,912,1014,815
-4,0,1,-2,-3,-2,-2,0,815,995,922,1023,821
-2,-2,8,4,-2,-2,-2,1,824,995,922,1023,821
-1,-1,-6,-5,0,2,0,0,824,995,922,1023,821
-3,-3,-23,-29,-7,-7,-2,-2,821,962,919,1023,821
0,-1,0,14,3,4,-2,0,789,863,886,1014,815
-2,0,0,-8,-2,0,0,0,772,825,855,1012,809
-1,-3,-16,-5,-1,2,0,2,735,748,796,998,781
-1,0,-6,4,0,0,-3,0,702,660,700,967,745
-1,0,18,-3,-8,-5,-1,-1,661,511,474,820,671
-1,0,-15,-4,0,0,0,-1,633,415,301,688,604
0,-3,-20,-3,-2,-3,-2,-2,633,415,301,688,604
-1,1,28,11,-1,0,-1,-1,607,321,133,528,519
1,0,-31,-17,0,7,3,0,568,211,0,307,360
2,4,6,-12,-2,0,-1,-3,532,140,0,192,210
-1,1,16,3,-1,-1,-3,-1,486,74,0,129,79
0,2,9,8,-3,-2,-2,0,458,57,0,104,36
-3,-4,-18,-11,-5,-3,-2,-1,449,52,0,100,33
-1,-1,3,5,2,0,-2,1,441,49,0,98,30
-1,1,7,3,-5,-5,-1,-1,428,46,0,94,27
0,1,5,0,-1,-2,-2,0,421,44,0,92,24
2,-2,-11,-3,8,11,4,0,417,44,0,92,27
3,3,26,13,-1,0,1,1,413,44,0,92,27
-5,-5,-15,-3,-1,-3,-1,-4,413,46,0,94,27
0,-5,-3,0,2,4,3,1,413,55,0,110,27
1,7,16,5,0,2,1,1,410,88,0,133,27
-2,-11,-30,-11,-4,-4,-2,-1,413,110,0,143,27
-1,5,1,7,2,-2,0,1,413,148,0,176,30
-1,-8,13,0,-4,-2,-2,-2,423,255,0,305,45
0,-1,-2,13,-2,-4,-2,-1,443,283,0,352,64
-1,-1,-4,-14,-3,2,1,0,469,313,33,397,88
2,5,-24,-7,2,0,0,1,493,343,87,440,116
-4,2,24,12,-1,0,-1,-3,519,365,146,483,146
1,1,6,3,4,3,2,2,551,396,216,533,198
-1,6,-9,-4,-1,-5,-1,-1,596,434,337,619,296
1,3,12,5,1,1,-3,0,612,451,383,649,335
-1,1,7,8,2,-1,-1,-2,620,462,399,660,354
-6,-11,-16,-6,-9,-6,-3,-3,635,481,448,684,387
0,3,-8,-8,-4,-7,-4,-2,651,503,492,705,424
-1,-2,13,-13,-2,0,-1,-2,663,528,533,723,448
0,-2,-1,4,2,4,-1,0,670,536,546,735,467
1,-4,-6,3,-1,-4,-1,-1,685,572,605,756,500
-1,-2,-16,-17,-8,-5,-3,-2,694,591,621,762,509
-3,-4,2,-3,0,1,0,-1,713,627,675,785,531
1,8,7,-3,3,5,2,0,746,682,770,842,561
1,0,14,7,2,2,0,-2,765,706,827,873,586
0,6,-7,-1,-6,-5,0,0,776,715,860,895,604
-2,-14,-30,8,0,-2,-1,-3,793,734,914,920,635
-1,-9,16,-9,-3,3,1,1,811,750,940,938,644
-1,7,21,7,4,2,1,0,821,759,956,947,659
1,-3,-16,-6,-1,1,2,1,830,761,971,957,671
-3,3,-10,-13,-7,-4,-2,0,839,767,986,975,684
-1,-5,-1,-2,0,0,0,-1,845,772,999,998,699
1,1,-10,0,-1,1,0,0,849,778,1010,1010,711
-2,0,-10,-1,1,-3,-2,-2,856,781,1020,1023,720
0,-2,-3,0,2,3,-2,0,856,781,1023,1023,723
1,-5,-2,7,0,1,1,0,856,783,1023,1023,726
-1,-3,6,-14,-3,-2,-2,-1,856,783,1023,1023,729
1,8,31,13,2,-1,-2,-3,856,783,1023,1020,729
-1,-5,-31,-19,-7,-1,1,0,856,783,1023,1020,729
-1,-5,-4,5,0,2,0,0,856,781,1023,1020,729
1,6,20,3,0,-2,-2,-2,856,783,1023,1020,726
1,4,28,2,2,0,-1,0,849,778,997,1010,720
-1,-6,-23,-8,-2,1,1,-1,826,748,948,994,699
2,2,14,-3,-1,-2,-1,-2,767,654,835,900,644
-3,2,8,15,0,0,0,0,711,525,647,759,567
-5,-6,-19,-17,-7,-1,-1,-1,694,486,568,697,537
-1,1,14,12,0,-3,-1,-3,670,409,382,562,461
-1,0,-1,2,3,1,1,-2,642,321,197,419,366
0,3,3,0,1,1,0,0,633,275,107,351,314
-4,-6,-30,-13,-5,-6,-2,-1,607,198,0,249,222
4,-3,-22,-10,-4,-2,-1,-1,553,101,0,153,70
1,3,15,6,-2,-3,0,2,540,96,0,143,54
0,-4,-9,-10,2,-1,-1,-2,521,77,0,128,39
0,3,-1,-3,-3,-1,0,0,499,66,0,112,30
-1,0,-11,-4,-2,1,0,-1,488,63,0,104,27
-3,-5,5,4,-1,-2,-3,-3,465,55,0,94,24
-3,1,12,-1,-1,0,-1,0,441,55,0,92,24
-1,4,13,5,-3,-3,-3,-3,423,55,0,92,21
-2,2,0,2,-1,2,-1,-2,415,55,0,92,21
2,-6,-12,10,3,4,3,4,413,55,0,92,24
-2,4,15,-1,-5,-5,-4,-1,410,55,0,96,24
-1,-1,7,1,-1,2,-2,0,413,55,0,102,21
-2,-11,-12,0,-2,-2,-1,0,410,60,0,124,24
0,11,-11,-9,4,-2,1,0,410,90,0,157,24
-1,-7,-6,-3,-1,-3,-1,0,410,115,0,182,24
0,-1,13,-5,1,0,0,-1,413,145,0,216,24
-1,4,-7,4,-2,1,2,-1,410,162,0,237,24
1,0,-7,1,2,0,-2,-1,413,195,0,278,33
-4,1,20,8,0,1,1,-1,413,222,0,319,45
-1,-5,-30,-16,-9,-5,-3,-2,417,250,0,358,64
7,5,24,9,3,2,1,1,428,272,0,398,94
-13,-14,-14,-2,-3,-5,-3,-5,447,294,43,433,128
4,13,20,9,4,2,1,2,473,310,92,468,158
0,8,-8,-16,-2,3,-2,-1,484,321,120,488,183
2,-8,8,10,4,3,2,0,508,332,177,517,219
1,-6,12,13,0,-3,0,2,536,352,249,572,280
-2,1,-39,-12,-7,-3,-2,-1,566,376,331,624,342
-2,-6,11,7,3,4,4,2,586,393,385,650,375
-2,-2,14,2,-3,-4,-5,0,592,396,418,660,393
0,5,10,-5,-4,-1,-3,-3,614,407,501,689,433
-3,-5,8,3,-2,-2,-3,-2,627,426,550,705,461
-2,-3,-15,-14,-6,-11,-4,-2,661,470,681,761,522
6,5,-6,7,4,5,2,3,676,489,724,781,540
-5,-11,-6,-5,-3,0,-4,-5,692,503,765,795,555
-1,0,-14,-13,-2,-6,-4,-2,705,517,799,810,571
-5,-7,22,16,-1,-2,-2,-2,709,519,812,818,580
-3,-9,-22,-6,-2,1,5,1,733,539,861,855,610
1,10,8,2,2,-2,-3,-1,735,550,879,867,619
-1,-6,-17,-9,-2,0,0,-4,754,566,909,890,656
2,1,15,8,2,5,4,0,763,566,922,900,668
-6,-1,3,-7,0,-2,-3,-4,763,569,940,912,687
2,2,5,8,-5,-4,-4,6,763,572,953,920,696
1,2,1,0,1,-1,-5,-1,763,574,966,926,705
-1,-2,-22,-13,3,1,3,3,763,577,966,928,708
-1,5,26,8,-1,-3,-3,-4,763,577,966,928,711
-3,-6,-21,-13,-5,-6,-6,-7,763,580,966,930,714
5,8,14,17,3,4,1,6,765,577,966,935,717
-2,-3,7,-9,-4,-1,-2,-2,767,577,963,939,720
-4,-12,1,10,-1,0,1,-2,767,580,966,939,720
-3,0,-7,1,-1,-1,-1,-7,767,577,963,937,720
-1,1,-5,-5,-5,-5,-4,-3,767,577,963,937,720
-2,-2,14,22,-5,-4,-7,-6,767,577,963,939,720
6,27,17,-21,3,2,0,9,767,577,963,939,720
0,12,19,4,0,-3,5,4,767,577,958,937,717
-2,-9,-13,6,-1,3,1,-3,767,577,953,937,717
3,14,15,-3,-4,-2,-1,-1,759,577,933,922,708
0,-6,-38,-13,2,1,1,3,744,577,899,896,690
0,-2,24,18,-1,3,3,1,728,563,843,865,665
-3,-5,1,-8,-8,-8,-6,-5,713,539,812,847,650
1,12,29,5,3,6,8,6,674,484,670,742,586
-1,-2,2,-2,-2,1,0,3,635,387,380,523,470
1,0,-7,-4,-2,-1,-1,2,601,228,53,278,299
-2,-5,-7,6,-3,-3,-1,-2,588,200,0,237,262
0,-8,-30,-22,-2,0,-5,-8,562,156,0,188,189
-6,-4,5,6,-4,0,1,-3,527,115,0,153,112
1,0,-8,9,0,-5,-7,-1,508,88,0,132,64
-2,1,13,-1,-4,-4,-5,-1,480,74,0,116,42
1,2,-14,-2,0,-1,-3,1,452,71,0,112,42
-6,-6,6,2,-4,-4,-1,-3,428,68,0,108,39
2,-4,-10,-8,-2,0,0,2,419,71,0,108,36
0,-2,-23,-5,-3,-3,4,2,389,68,0,104,36
-3,0,3,-15,0,1,1,-1,354,68,0,104,33
1,-6,-4,-3,-2,-6,-4,2,335,71,0,104,33
1,6,18,8,0,-1,2,2,320,71,0,104,33
-1,-2,-24,9,-1,-1,-6,-5,313,71,0,104,33
-4,-19,11,6,-5,-9,-8,-1,313,71,0,106,33
-1,-2,-19,4,-7,-8,-6,-1,311,68,0,110,33
6,11,5,3,7,5,8,5,311,71,0,118,33
-5,-10,0,-16,0,2,2,1,313,71,0,124,33
0,8,-15,12,-6,-8,-2,-1,311,71,0,126,33
-3,-17,2,-2,2,-2,-4,-3,313,71,0,132,33
-5,6,7,-7,-2,0,-5,-4,311,71,0,139,33
6,7,35,7,11,7,3,-5,313,71,0,165,36
0,-1,-15,1,3,4,4,2,315,71,0,190,45
0,8,31,-1,-1,-2,-5,-1,315,68,0,196,45
-5,-9,-2,2,-6,-7,-4,-5,326,71,0,206,58
1,-3,-4,6,0,1,-1,-1,335,68,0,210,61
-2,5,0,-8,-1,2,2,-1,363,74,0,231,82
1,-2,-12,-6,2,4,5,4,389,85,0,255,100
3,1,5,5,0,-1,-3,-2,408,96,0,270,112
-3,-4,15,7,-2,-4,-5,-5,443,121,0,304,134
-6,-6,-14,-2,-3,-4,-4,-9,501,159,0,360,186
4,5,24,16,-1,3,1,6,519,167,0,378,198
-1,-3,-9,-3,-1,0,-1,1,542,184,43,398,229
-1,-5,17,11,0,-2,-1,0,588,214,113,441,268
-1,7,8,1,-1,1,0,-2,603,214,136,452,277
2,2,12,2,-8,-5,-1,0,614,225,159,462,293
0,2,-16,-9,-2,-5,-1,0,648,250,226,499,329
-2,-8,-4,-8,-6,-1,-2,-1,661,255,246,507,342
-4,-1,-17,2,4,1,0,-4,679,266,303,538,369
-1,4,2,-1,-1,0,0,0,702,275,359,566,396
2,1,11,1,0,3,-2,3,722,275,406,593,427
-1,-6,-6,-10,-2,0,0,-1,733,275,431,607,433
-1,0,6,-3,-3,-4,-2,-3,756,288,498,642,467
-3,-1,13,9,-5,-6,-2,-2,756,288,498,642,467
0,-5,-18,-7,1,6,1,-1,769,299,532,662,482
2,0,-7,-1,4,2,2,-1,789,321,580,695,500
3,7,14,14,-3,-3,0,2,795,327,593,705,506
-2,-10,-18,-23,-6,-5,-4,-2,804,343,614,724,513
2,5,25,13,-3,-6,-5,-2,813,363,645,740,525
-3,-4,-4,3,0,-3,0,-1,815,387,678,763,540
-1,-5,-20,-10,7,8,3,0,815,401,686,769,543
1,5,-2,14,1,0,2,2,821,415,704,785,552
-1,1,12,9,-1,-4,0,2,821,429,714,789,555
-1,-3,-35,-12,2,1,1,1,826,451,729,808,567
-2,1,14,4,3,3,0,-1,834,470,750,824,589
-1,0,10,3,1,2,-1,-1,847,484,768,832,601
0,2,1,-7,0,-1,-2,-2,858,492,778,844,626
-2,-4,-29,-10,-5,-4,0,-3,862,495,778,844,632
1,-1,-6,9,0,-1,1,0,869,495,781,847,635
1,-1,14,-1,-4,-2,-1,0,878,497,786,851,641
-4,-8,-14,2,-3,-4,0,-3,886,497,789,855,647
-3,-1,-15,-8,0,5,-1,-2,899,497,796,861,653
-1,-4,-21,-14,-1,1,1,1,906,269,801,867,659
2,4,21,10,1,-2,0,1,906,269,801,867,656
0,-1,19,6,-6,-3,-2,-1,908,269,801,867,659
-1,-2,-2,-12,1,-3,-1,-1,906,261,801,867,653
0,0,0,-3,0,1,0,-1,904,253,799,867,638
-2,1,-16,-2,-1,1,0,0,891,244,783,867,616
-3,-3,-2,-4,-4,-2,-1,-2,884,242,771,859,601
0,1,0,13,1,3,1,-1,852,242,711,808,558
0,-3,0,-12,7,4,3,1,800,233,586,709,506
0,3,24,15,-2,0,0,-1,752,214,488,615,467
0,2,0,-5,-4,-5,0,0,731,192,431,562,433
-1,-3,2,-7,-5,-3,-3,0,715,187,375,505,403
-3,-14,-38,-11,-2,2,2,-3,676,181,197,339,293
0,-1,1,-6,-1,1,1,0,651,181,89,253,219
0,3,12,10,2,0,-2,0,629,176,0,192,158
3,4,3,1,-4,1,0,-1,605,173,0,153,112
-3,-8,-13,-27,-5,1,0,-1,588,162,0,126,70
-3,5,-3,5,0,0,1,-2,542,140,0,96,33
0,-6,3,-9,-6,-1,1,0,506,134,0,92,30
0,1,6,-7,0,-2,-2,0,490,132,0,90,30
0,0,27,20,1,-3,-3,-1,484,129,0,87,27
-2,-2,-6,-5,2,3,-1,-2,471,126,0,87,30
0,0,-24,-29,-11,-5,-2,-1,458,126,0,90,27
-3,-7,-9,0,1,0,-2,-1,449,126,0,90,27
-1,2,1,11,-2,-1,-1,-3,449,126,0,87,27
0,4,13,6,4,-1,-1,1,449,126,0,90,27
0,-3,-13,1,4,1,1,0,449,129,0,85,21
0,0,8,-8,-1,0,2,-1,449,126,0,85,24
-3,-6,-13,-3,1,-2,-2,0,449,126,0,83,21
0,4,13,-2,1,0,1,-1,449,129,0,81,21
1,4,26,16,3,0,0,2,449,129,0,81,21
-4,-10,-22,4,-1,-1,-2,0,449,126,0,81,18
0,3,-7,-4,-2,-1,-1,-2,449,126,0,79,15
0,3,21,2,1,-2,0,-1,449,126,0,79,15
1,0,-11,3,2,2,0,-1,447,126,0,77,15
0,2,16,-3,-1,1,2,1,449,126,0,79,18
-3,-4,-5,8,-1,-2,-3,-2,447,129,0,77,15
-1,-2,-22,-12,-6,-7,-2,0,449,126,0,77,15
-3,-1,2,-2,1,-3,-4,-2,449,129,0,75,15
1,-1,17,10,0,-1,-1,-1,447,129,0,75,15
-4,0,-3,-12,-3,-2,-1,-1,449,129,0,75,15
0,-6,-28,-18,-2,0,0,-3,449,129,0,75,15
-1,6,19,8,-3,-4,-1,3,449,126,0,75,15
1,-5,-18,1,1,3,1,0,449,129,0,75,15
0,-3,3,4,2,1,1,-1,449,129,0,75,15
0,4,-8,-9,-5,0,-1,-2,449,129,0,75,15
-2,-13,-27,4,-3,-3,-1,-1,449,126,0,73,15
-2,2,9,0,-5,-5,-4,-4,449,129,0,75,15
0,-5,-11,-11,-2,0,1,-1,449,126,0,75,15
-1,-5,-6,-1,1,0,-1,1,449,129,0,75,15
-3,0,7,-1,-9,-5,-3,-2,449,126,0,75,15
-2,-3,-1,8,2,0,-1,-1,449,126,0,75,15
2,4,5,-9,-2,-6,-2,0,449,126,0,75,15
-1,6,15,8,-5,-5,-2,0,449,126,0,75,15
1,5,7,-10,-3,0,1,-2,449,126,0,73,15
-2,0,6,0,-1,-4,-3,-1,449,126,0,75,15
1,3,15,0,-2,-3,-1,-2,449,126,0,73,12
2,2,-2,3,1,1,1,1,449,126,0,75,15
-1,3,-23,-8,-8,-6,-4,-1,449,126,0,75,12
-4,-14,-16,-3,7,3,1,-2,449,126,0,73,15
-2,4,1,-1,-1,1,0,0,449,129,0,73,15
-1,3,18,7,-4,-1,-2,-2,449,129,0,75,15
1,2,-5,4,1,0,-1,1,449,126,0,73,15
1,-5,-7,-7,-6,-2,-2,-1,449,126,0,73,15
3,7,19,-3,-5,-2,-1,1,449,126,0,73,15
1,1,-3,4,4,2,0,1,449,126,0,73,15
-5,-16,-22,-5,-3,-3,-2,-2,449,126,0,73,12
-4,-4,5,-1,2,1,0,1,449,126,0,75,15
-1,4,-3,2,5,2,-2,-2,449,126,0,73,15
0,-2,5,-13,-2,-1,-1,0,449,126,0,75,15
1,2,-12,13,-2,0,1,1,447,126,0,75,15
0,4,19,-1,-5,-4,-1,1,449,126,0,73,15
0,9,10,-1,3,3,1,-1,447,126,0,75,15
-2,4,-20,-8,-4,-4,-2,-1,449,126,0,73,15
2,-1,-11,-10,2,0,0,0,449,129,0,75,12
2,8,19,8,1,1,0,1,449,126,0,73,12
-6,-17,11,5,-4,-3,-3,-3,449,126,0,73,12
-2,2,-38,-9,-6,-2,-3,-3,449,126,0,75,15
4,18,14,-16,1,1,-2,0,449,126,0,75,15
-2,-8,-4,1,-1,-4,-2,-2,449,129,0,75,15
